-3.374547919332464285e-02,3.431316451814608870e-02
-2.144168903976265139e-02,4.670795037984067782e-02
-9.129216831847489222e-03,5.928629164351653658e-02
2.599554058328266276e-03,6.856921785730288321e-02
1.347735858589529587e-02,7.151653989110040577e-02
2.318114809458058506e-02,6.481060119542803033e-02
3.149257381325255845e-02,4.908354263294947839e-02
3.735677396450835103e-02,2.794967654046569966e-02
4.041413658341577730e-02,5.424215831683546277e-03
4.142937623063545904e-02,-1.470227355438634247e-02
3.958746789627329288e-02,-3.017838615677824465e-02
3.439736868090639832e-02,-4.018210701056823542e-02
2.475772208459317558e-02,-4.679076509491693348e-02
9.136957982746145984e-03,-5.100676250537357348e-02
-9.374623462431133647e-03,-5.311863562444722742e-02
-2.660666651797405358e-02,-5.441187197613130827e-02
-3.925126887940233456e-02,-5.399899372439068840e-02
-4.622595910933653685e-02,-5.212920846125748686e-02
-5.062974395174905939e-02,-5.036823767186560108e-02
-5.484548007170585160e-02,-4.938049003237064694e-02
-6.098634368182725973e-02,-5.008055898971774250e-02
-6.764128617156964229e-02,-5.110217558383239878e-02
-7.102525144859014872e-02,-4.928780970562294389e-02
-7.131458923976544129e-02,-4.306382545028131226e-02
-6.739950417819359774e-02,-3.047300965303436152e-02
-6.145646658800280049e-02,-7.608298602642583723e-03
-5.620654518777201680e-02,3.401458857018498094e-02
-5.177401105525851477e-02,1.050372769810800633e-01
-4.900467110528711201e-02,2.078636362346819311e-01
-4.801864619797877043e-02,3.205987441157520101e-01
-4.442293824257306789e-02,4.035672283548475958e-01
-2.844996548975637501e-02,4.173278139345736881e-01
1.044448194626221467e-02,3.396456707187764934e-01
8.836497971588126721e-02,1.955133241824563717e-01
2.033284489293154251e-01,3.114726149480215658e-02
3.176185729044709305e-01,-1.044184920825924623e-01
3.868563298188059107e-01,-1.763569477021957321e-01
3.698963916491173620e-01,-1.883612887222693155e-01
2.625748156056251781e-01,-1.588953105772248908e-01
1.149783705830124958e-01,-1.144989544290951067e-01
-9.492672336937325872e-03,-7.639571044751168605e-02
-7.329410140893841130e-02,-5.241736744092679451e-02
-7.923206882537137119e-02,-4.263521617257225865e-02
-5.330963356082901727e-02,-4.373594293170135483e-02
-3.006085438669434118e-02,-4.968918706121279449e-02
-2.151047468506010751e-02,-5.564426183955638316e-02
-2.179979497206396832e-02,-6.070947091944504936e-02
-2.588869311855011152e-02,-6.185437330789038402e-02
-2.733463993952824078e-02,-6.104818230772787735e-02
-2.515037682446200074e-02,-5.863688833604445427e-02
-2.118182044926313415e-02,-5.313831910751643656e-02
-1.752934934653371454e-02,-4.720094914005765196e-02
-1.534056716851734878e-02,-4.197018547191410515e-02
-1.543153572392866324e-02,-4.079887644127994095e-02
-1.600037205286813924e-02,-4.455525920227938752e-02
-1.435175970117509234e-02,-4.922092108324545301e-02
-1.145300481031892581e-02,-5.110054448768044238e-02
-8.065818158962817508e-03,-4.772160216173161607e-02
-4.047359677157905643e-03,-4.084610963576730536e-02
-1.908951881710730780e-03,-3.366134466222239774e-02
-8.688822346741975752e-04,-2.779754797629230278e-02
8.358464648635125990e-04,-2.396508991251650178e-02
1.204169769735980193e-03,-2.033703722580896406e-02
2.297225417908398820e-03,-1.579151135303509187e-02
5.634814083522244818e-03,-1.109574649074141113e-02
1.035749171055888249e-02,-5.739195363421443000e-03
1.733917008979352081e-02,2.556315043032441085e-04
2.369632030143902640e-02,6.684650185552507701e-03
2.877242551965125336e-02,1.353654426593403279e-02
3.233732876198576467e-02,2.009438931043080329e-02
3.607922023041552212e-02,2.417339322587104544e-02
4.324606819706273975e-02,2.476213877488364634e-02
5.055738296568632745e-02,2.337553131051989599e-02
5.789981297812736571e-02,2.410097955796376701e-02
6.404872392588223384e-02,3.105517564296610480e-02
6.686974281695504119e-02,4.272463034716193070e-02
6.984380639784124045e-02,5.482841296100145895e-02
7.398752258970658913e-02,6.097932384599856481e-02
7.761600204148608184e-02,5.956636219277444688e-02
8.156960672479811325e-02,5.619502896180431778e-02
8.610645021148871647e-02,5.525825012851856566e-02
9.034282785284133976e-02,5.886421626069176377e-02
9.672942628597652748e-02,6.459633843421838661e-02
1.045689158714600275e-01,6.808234634215717951e-02
1.126435798002456551e-01,6.928798306679699592e-02
1.214434621239061929e-01,6.863577716509244864e-02
1.291474497117799936e-01,6.659422504406359300e-02
1.343399874379891668e-01,6.364454961810300793e-02
1.366724320044557239e-01,5.830833415158436644e-02
1.355406910269540410e-01,5.165557461959351809e-02
1.305192395834948726e-01,4.489370283170947273e-02
1.219420848618795461e-01,3.801097799515931741e-02
1.102217469022994251e-01,3.174400077687303257e-02
9.575231516339459403e-02,2.438353578235166047e-02
8.062091653940103853e-02,1.615721615786881726e-02
6.845414841711935927e-02,8.771566585664709176e-03
5.793759812281358557e-02,1.533754377448137219e-03
4.909818890126613211e-02,-5.317010127374260930e-03
3.972456647564912013e-02,-1.238183636616967467e-02
2.714660377613268075e-02,-2.049980319220034986e-02
1.379887945951815791e-02,-2.894482288948853344e-02
-9.285793895819187144e-04,-3.436527095647599894e-02
-1.514574278427243195e-02,-3.573443779379670282e-02
-2.593247909548472563e-02,-3.463203963637874472e-02
-3.473878247792454299e-02,-3.265609478854929193e-02
-4.012796071977076107e-02,-3.242723849989447016e-02
-4.214779884760515988e-02,-3.388204540145246801e-02
-4.386410004671800061e-02,-3.539473268574595127e-02
-4.389615376667139329e-02,-3.539012495413611237e-02
-4.385226415338634026e-02,-3.484784402961196154e-02
-4.311115387486691430e-02,-3.402343075106166459e-02
-4.040204990813207192e-02,-3.213546565693795043e-02
-3.776603943778381045e-02,-2.811544229958270330e-02
-3.441651897784230724e-02,-1.991501300499836508e-02
-3.266252665643541719e-02,-1.027867147791914661e-02
-3.329131908373995224e-02,-3.507735458035668094e-03
-3.333384859135724021e-02,-3.127387653380392027e-03
-3.175720230132762778e-02,-1.121345819865597962e-02
-2.756241224379425356e-02,-2.524421480381660449e-02
-2.301478856174083223e-02,-3.913936668563491872e-02
-2.201279370252708784e-02,-4.952460377856188894e-02
-2.598319915878392547e-02,-5.375799606242266659e-02
-3.378582268207439010e-02,-5.046854281293099154e-02
-4.119412942414869827e-02,-4.296835689983494189e-02
-4.463409424284191934e-02,-3.270721044412260720e-02
-4.141366234988040629e-02,-2.303914119723094595e-02
-3.448375853167752469e-02,-1.592769841432681993e-02
-2.635738596760081598e-02,-1.134197531417302160e-02
-2.043608965544130990e-02,-9.652944358971002337e-03
-2.206980303724350237e-02,-9.546213621265451851e-03
-2.779601959961311430e-02,-1.091247557889827961e-02
-3.569516205356305927e-02,-1.102884618270258583e-02
-4.355865339482441201e-02,-7.591388262327962433e-03
-4.824846324960679195e-02,-5.010095211817190523e-04
-5.115855466425939246e-02,8.306959511210278146e-03
-5.328518856619744032e-02,1.343741813340732297e-02
-5.522282297143110003e-02,1.214063668345167352e-02
-5.595939581725196260e-02,5.790041188315311373e-03
-5.546467309839331339e-02,-5.032362781852488210e-04
-5.429699405317228028e-02,-1.277898501217120944e-03
-5.238738719404484323e-02,5.686056968781112719e-03
-5.108060290491740069e-02,1.994215039529328298e-02
-4.979652205820216115e-02,3.602879730309552220e-02
-4.640572238282453937e-02,4.870493174936357805e-02
-4.180060469669305556e-02,5.437939707371630682e-02
-3.842731968027507383e-02,5.217659375395473920e-02
-3.824167224954228006e-02,4.549581497750954107e-02
-4.432423887732892670e-02,3.702904297427533215e-02
-5.359964071773880290e-02,2.736909896898506028e-02
-6.064161578759701132e-02,1.600902077030373974e-02
-6.435771152977395881e-02,2.665854617726744376e-03
-6.422566771318419243e-02,-1.137035516375648446e-02
-6.244132331049624673e-02,-2.442117765568413770e-02
-6.188193184549518888e-02,-3.585603885186491868e-02
-6.217207979866888612e-02,-4.619088205933119529e-02
-6.258430682644489096e-02,-5.604690900988144181e-02
-6.233126730970767887e-02,-6.313959288082122978e-02
-5.966602215170688228e-02,-6.684270117030051417e-02
-5.544934922542309880e-02,-6.845788951121009602e-02
-5.144084541276684741e-02,-6.832957287215771225e-02
-4.952600447385827054e-02,-6.816328667574421407e-02
-5.339759340418122335e-02,-6.831655588907895038e-02
-6.094521186751448993e-02,-6.558174949957071287e-02
-6.742159072141648557e-02,-5.803825472294212029e-02
-7.105592565048157727e-02,-4.500131558608194693e-02
-6.845369731817541048e-02,-2.126697233633495152e-02
-5.901576303352405739e-02,2.121530057695668325e-02
-4.430452365277148113e-02,9.170851863994994302e-02
-2.564066537574297144e-02,1.956551638284916850e-01
-6.005844557714710985e-03,3.180470830468936638e-01
1.119819779473179948e-02,4.222427061881913191e-01
2.416917515534103278e-02,4.661054622939591052e-01
3.269679431853336066e-02,4.161694440941049455e-01
3.727322565949756777e-02,2.823562421079188201e-01
3.896705792023544279e-02,1.072680722330674463e-01
3.671873730228644717e-02,-5.503137834725561200e-02
3.235910239905544217e-02,-1.552936085189283999e-01
2.762644661703780521e-02,-1.895584329212546271e-01
2.100654463084841717e-02,-1.742765062328713865e-01
1.337118505276083461e-02,-1.385933437206244567e-01
2.582932957090884000e-03,-1.099551790078235058e-01
-1.172305890969741957e-02,-9.261485551015152806e-02
-2.644645785132761218e-02,-8.593243793825602883e-02
-4.013164523706878178e-02,-8.312769312229803531e-02
-5.051667887618766645e-02,-7.815638576109233682e-02
-5.782815646084399352e-02,-7.089397539246417024e-02
-6.324713066884307677e-02,-6.251345223880884483e-02
-6.713800362342886574e-02,-5.515096289846185829e-02
-6.928786994090471718e-02,-5.049872307731954890e-02
-6.891333500189014694e-02,-4.899657691836827728e-02
-6.721402901120296369e-02,-4.820949844225734526e-02
-6.430997185854656073e-02,-4.546742943847327523e-02
-6.265161042210351527e-02,-4.040875441086311248e-02
-6.258575656748992244e-02,-3.438884664659657558e-02
-6.216713684600734535e-02,-3.018949068320668158e-02
-6.295063984894376519e-02,-2.967885794787170767e-02
-6.149149431259594289e-02,-3.178099986406537902e-02
-5.296490461772716124e-02,-3.326590057717544735e-02
-2.936534921193778569e-02,-3.331460669758630477e-02
2.138364130642430791e-02,-3.280902192276739099e-02
1.111102013087903739e-01,-3.267433655511545187e-02
2.279372766376968062e-01,-3.366910714409055566e-02
3.326628413089987579e-01,-3.368817147402382306e-02
3.822487185725976788e-01,-3.034762286842389994e-02
3.416595376472192913e-01,-2.421920939502546916e-02
2.220667733878040617e-01,-1.735412414514318075e-02
7.982244789129706863e-02,-1.187093723074117424e-02
-2.709691122997145291e-02,-8.923104605385905747e-03
-7.301159060330079942e-02,-6.790744284486647381e-03
-6.774812427569204543e-02,-2.783369278208640100e-03
-4.239515167494316283e-02,3.708350298023087993e-03
-2.603333505036809631e-02,1.284100253574847576e-02
-2.278668941152307142e-02,2.277897504754691077e-02
-2.692898005921030846e-02,3.104148649732133003e-02
-3.294129690711024294e-02,3.756124369429784254e-02
-3.660935424564741580e-02,4.282988971257964406e-02
-3.843095931795720982e-02,4.691935448493963351e-02
-3.840215977576237616e-02,4.992514774633173558e-02
-3.666752988891765208e-02,5.196729541056784030e-02
-3.491363432985876425e-02,5.236432077652784789e-02
-3.229111364233629156e-02,5.456756473799874441e-02
-2.725481516190259024e-02,6.233843906719629957e-02
-2.091641682336650016e-02,7.387887106259177772e-02
-1.408540409953075619e-02,8.535449226231076048e-02
-9.201400596923196840e-03,9.163331827580906142e-02
-8.070147650362707870e-03,8.803857505046658316e-02
-8.666571809842062851e-03,7.665818476830565942e-02
-8.135806390937668289e-03,6.323579948753152435e-02
-4.566865650548891480e-03,4.986776870356301322e-02
1.008765821277295745e-03,3.729787718754849768e-02
8.977080533067258866e-03,2.514475853624275475e-02
1.776036541051481676e-02,1.330830216143393495e-02
2.620464847183748627e-02,2.623504977507120414e-03
3.584658501994943125e-02,-5.231720044526932088e-03
4.316501469521949463e-02,-1.022187809955258340e-02
4.974200079988089912e-02,-1.427613667383695675e-02
5.787847454733828501e-02,-1.743446525483056259e-02
6.388216860357770477e-02,-1.976735093129874249e-02
6.978230815737980486e-02,-2.154553951354197874e-02
7.351577625971224272e-02,-2.368409445949246767e-02
7.316343659883264849e-02,-2.625009812288507660e-02
7.357756098987701388e-02,-2.848282659488338836e-02
7.464781859845219525e-02,-2.880805068024735668e-02
7.763110574626899685e-02,-2.630343509857048512e-02
8.397469614554603501e-02,-2.305511998008864805e-02
9.183119777203116452e-02,-2.192274141097714721e-02
1.015495968472119037e-01,-2.445316739623860924e-02
1.108964603805065868e-01,-2.641585935171933408e-02
1.184201226062528978e-01,-2.338014776626028829e-02
1.236488186191631589e-01,-1.688770811248579973e-02
1.268304416766626308e-01,-1.121181933386898935e-02
1.312940995101487540e-01,-1.302954430366553250e-02
1.353675596690302185e-01,-2.556775262669151033e-02
1.392029595539118758e-01,-4.129898163700025659e-02
1.410455028300857672e-01,-5.217509660421227463e-02
1.386629434308663811e-01,-5.548875876098793847e-02
1.342981576957468226e-01,-5.145329728129579422e-02
1.276003867144702153e-01,-4.509888824773534977e-02
1.190985699699433353e-01,-4.020742175349189401e-02
1.082845779897891741e-01,-3.643090729053716226e-02
9.514621066055360676e-02,-3.332967405167486935e-02
7.870544917748217850e-02,-2.993563203213968002e-02
5.890399389408543934e-02,-2.455175908009688684e-02
3.793348404337490432e-02,-1.819974003134763874e-02
1.647163354129307228e-02,-1.104595758420045745e-02
-2.472181287980938086e-03,-4.260811478549880044e-03
-1.876049646725560377e-02,-1.585672381238692735e-03
-3.314552626599294449e-02,-2.544180289265886470e-03
-4.594003135122751158e-02,-5.110769826860603673e-03
-5.594423027928216441e-02,-6.580911893880729037e-03
-6.163258058861571798e-02,-2.736241688128508102e-03
-6.269483054369694164e-02,8.407520158672066729e-03
-6.099926912653111377e-02,2.427590794811811808e-02
-6.076803260006069518e-02,4.241014210268532342e-02
-6.110358052040242016e-02,5.918794281262770157e-02
-6.276084352569923086e-02,7.031079035048004577e-02
-6.269496698602099183e-02,7.543111152509757167e-02
-5.920786759708365765e-02,7.339195629771091967e-02
-5.716302422580989834e-02,6.572588342346714907e-02
-5.651413258749289625e-02,5.523608280878988808e-02
-5.908036689319770551e-02,4.260836621738435526e-02
-6.426771172124240428e-02,3.016372819514338138e-02
-6.648422077071206027e-02,1.878657922409107672e-02
-6.512318016931549491e-02,7.801313407712080934e-03
-6.069118396828821621e-02,-2.514010040296910890e-03
-5.447145414877327396e-02,-1.343185715582419573e-02
-4.916137913833183021e-02,-2.651484524835134166e-02
-4.496111114505490364e-02,-4.124630747310879808e-02
-4.101070859112042333e-02,-5.594577928910179215e-02
-3.778662466326144359e-02,-6.750566054525480864e-02
-3.619997317495890488e-02,-7.432937767126282513e-02
-3.598585796271547982e-02,-7.497366910189780242e-02
-3.714007036980100651e-02,-7.000441323233785873e-02
-3.820322470469076498e-02,-6.240540375315613286e-02
-3.741458291091530330e-02,-5.399289061339082596e-02
-3.576510462019742015e-02,-4.848875093096922245e-02
-3.457091731743970608e-02,-4.781883387196558116e-02
-3.285942306337760743e-02,-5.034872757444690261e-02
-3.185114041115193195e-02,-5.144835630913342783e-02
-3.248480200346293145e-02,-4.432289362280761313e-02
-3.300851326781584216e-02,-2.108190119441041149e-02
-3.534327932812247886e-02,2.756793388657540617e-02
-3.916431736744997727e-02,1.071895818800382844e-01
-4.251255577766174104e-02,2.151514577035354148e-01
-4.498291989903631383e-02,3.282247542314484789e-01
-4.611618151718000630e-02,4.105346651979904782e-01
-4.574596579921750422e-02,4.256432346056012728e-01
-4.505375617750208284e-02,3.522838486943450365e-01
-4.538794314613732450e-02,2.128853357008912428e-01
-4.574588553139737057e-02,4.826690076381119632e-02
-4.667266413275104192e-02,-9.387195427563943539e-02
-4.692165046578061771e-02,-1.776222539461392025e-01
-4.767610582085698989e-02,-2.030183930953072813e-01
-5.108679062939095600e-02,-1.861274979767617577e-01
-5.477266936380176948e-02,-1.534746614106362872e-01
-5.821037786363840449e-02,-1.236423508903670143e-01
-5.937903072011311428e-02,-1.023832059588537791e-01
-5.721165373632911000e-02,-8.957128739016470553e-02
-5.395081069414631170e-02,-7.937147722141241202e-02
-5.123008573935241422e-02,-7.065181830155142784e-02
-5.100067074111853255e-02,-6.460475742109916819e-02
-5.264043002793401815e-02,-6.128226779915514622e-02
-5.581010087547730314e-02,-6.108729669538920382e-02
-5.879998154655701609e-02,-6.265072665926504913e-02
-5.811044008422153878e-02,-6.475841161366062415e-02
-5.364718850196344146e-02,-6.548565963288296987e-02
-4.580425830526649311e-02,-6.283371950220138780e-02
-3.654662626106722906e-02,-5.777588134120058283e-02
-2.689415238025345475e-02,-5.043592210263955072e-02
-1.788581827326420071e-02,-4.207719861298839931e-02
-8.651547536472663918e-03,-3.554355640068914551e-02
1.722217619585247319e-03,-3.188145133709970741e-02
1.020724522912786619e-02,-3.154528855558202949e-02
1.758902217398948878e-02,-3.445692606597854091e-02
2.334954756264764897e-02,-3.815614551392707693e-02
2.648857791737970618e-02,-4.041265294948150066e-02
2.703053669378426699e-02,-4.074157531168467322e-02
2.205732754476115789e-02,-3.954956220101252945e-02
9.340965137426267967e-03,-3.757155079173386814e-02
-1.020054522139877094e-02,-3.486049283511138963e-02
-3.279477644549472215e-02,-2.961759716302391626e-02
-5.310868321343543974e-02,-1.987475734012256190e-02
-6.627283523426585887e-02,-7.197441188751617369e-03
-7.267651899482552302e-02,4.499452674590996917e-03
-7.443644778503881454e-02,1.073417254344630027e-02
-7.373574202483426654e-02,1.011967461608305995e-02
-7.391544756642487446e-02,6.140369793201531923e-03
-7.395527960809072932e-02,5.357670671771033039e-03
-7.395468482555703216e-02,1.189430446160895036e-02
-7.530607329682507955e-02,2.347898264638850069e-02
-7.604048577961819433e-02,3.544855064132074879e-02
-7.725510687028008805e-02,4.248234173172714401e-02
-7.760527393483071523e-02,4.287494173021814958e-02
-7.570269513077940160e-02,4.058367858108324205e-02
-7.394878415401232030e-02,3.872768845356929640e-02
-7.189898199884184327e-02,3.994718953013028789e-02
-6.910136736701119609e-02,4.400740203152653934e-02
-5.857956329699801068e-02,4.763336143087657654e-02
-2.819932144824491976e-02,5.061186742229689672e-02
3.446581771149284656e-02,5.263689001269536427e-02
1.410475027948120963e-01,5.360172138785539164e-02
2.711747556986844332e-01,5.519019102774651298e-02
3.785130227703979444e-01,5.685659719146668456e-02
4.189272412758748843e-01,5.593607263277790981e-02
3.621648577041761685e-01,5.207985433271004883e-02
2.299563036532514260e-01,4.430826907719265934e-02
8.512486034921121214e-02,3.277420064316083348e-02
-1.969929723137047936e-02,2.117917430902148054e-02
-6.647741346012900343e-02,9.660283116515934465e-03
-6.796019301201083884e-02,-1.014384517074224269e-03
-5.401246796152389673e-02,-1.070356445918983594e-02
-4.708859305022506520e-02,-2.057080159376852360e-02
-4.663560303944018492e-02,-2.861700239155370168e-02
-4.823330300284266875e-02,-3.491571766587216186e-02
-4.936171161576891064e-02,-3.941944899612274261e-02
-4.924769203610033369e-02,-4.155674842394550816e-02
-4.828640944350476999e-02,-4.134102530397296832e-02
-4.570996463121872883e-02,-3.907933027069503823e-02
-4.229566058063967404e-02,-3.597594075448504874e-02
-3.727268305918718383e-02,-3.412725288722724681e-02
-3.251222543708420093e-02,-3.539045910022404345e-02
-3.039578858237694872e-02,-3.724123936791332717e-02
-2.991311693570196384e-02,-3.634581145169005212e-02
-3.092885959668762591e-02,-3.138093839756801728e-02
-3.316447519669211974e-02,-2.368101211923038379e-02
-3.458899434249735477e-02,-1.791522953618937194e-02
-3.478078411625994820e-02,-1.725214681212264289e-02
-3.366655298343380204e-02,-2.188568195475836670e-02
-2.905114199960741328e-02,-2.838224262975824752e-02
-2.213623791714567496e-02,-3.166875516390760259e-02
-1.402935194040019068e-02,-3.104927462298646967e-02
-4.540634194849456871e-03,-2.619794072117800215e-02
2.685145886366093262e-03,-1.911631898060289769e-02
7.994171514407510948e-03,-1.431493181028176825e-02
1.226921959127670950e-02,-1.288483849201086870e-02
1.478807854986465345e-02,-1.506349893273102244e-02
1.838720058409451519e-02,-1.829488290789427207e-02
2.316393936124788722e-02,-1.998043987058904444e-02
2.901721752290294457e-02,-1.900723570560017978e-02
3.564446324871497346e-02,-1.552730631416070900e-02
4.245390723859866766e-02,-1.135694066883116866e-02
4.898634743687207971e-02,-4.231068573237341431e-03
5.381310598352195829e-02,7.333584367681154383e-03
5.940386320247920127e-02,2.205898009092351064e-02
6.644054321591877366e-02,3.691378578173178104e-02
7.387047875238816896e-02,4.831164818574720105e-02
8.300517725934898616e-02,5.555078874774187908e-02
9.140522714750901057e-02,6.138690061472554249e-02
9.749441116160482979e-02,6.804210812938421560e-02
1.035504017087760381e-01,7.235321864995214458e-02
1.091286209660645157e-01,7.176296543275442752e-02
1.137604289384946815e-01,6.572168986032608795e-02
1.176830085296675793e-01,5.606291681294102436e-02
1.203384344734765576e-01,4.547100413386887668e-02
1.224042814638649501e-01,3.368848779754328449e-02
1.246055081902836120e-01,1.873780829899259273e-02
1.258336618450330846e-01,2.174262073152033632e-04
1.245999309729373256e-01,-1.844319406892366842e-02
1.189183395129795595e-01,-3.248368797971289829e-02
1.072384610643038472e-01,-4.028981486501548304e-02
9.187314645071679997e-02,-4.350339798330857960e-02
7.429542272163330852e-02,-4.384083066964999942e-02
5.524630590651909839e-02,-4.487586711003281603e-02
3.753724345217780700e-02,-4.828770071649836348e-02
2.002776387752916443e-02,-5.321021902835362805e-02
3.133566632500446505e-03,-5.956455375417413906e-02
-1.115351608466291777e-02,-6.530274801733787493e-02
-2.391061240841126090e-02,-6.760815806512886217e-02
-3.346700669690749752e-02,-6.600757034005844126e-02
-4.035853978190651059e-02,-6.187721507877179394e-02
-4.525796804997429118e-02,-5.573525391533842854e-02
-4.727639240911227225e-02,-4.612824889770970882e-02
-4.764643553001293719e-02,-2.711794859957862222e-02
-4.609410738200851732e-02,1.270408530990809956e-02
-4.316285883076657892e-02,8.602513768520866910e-02
-3.994113434224390302e-02,1.956707898501196530e-01
-3.762113970524336160e-02,3.227860469163046364e-01
-3.724699888869152653e-02,4.290800654967031891e-01
-3.852140121060695227e-02,4.691583753005273971e-01
-4.135332335315784064e-02,4.124958669149036972e-01
-4.394057155574134649e-02,2.745231341623411980e-01
-4.532591436548961961e-02,9.921674502269386964e-02
-4.553281226390602787e-02,-5.922562718147860589e-02
-4.403839833920585728e-02,-1.576623710935995959e-01
-4.195033928963370212e-02,-1.947215575280930866e-01
-3.987365310295906684e-02,-1.858714912910160999e-01
-3.859978208379059861e-02,-1.561805876366972323e-01
-3.820762587133434696e-02,-1.260574725253558181e-01
-3.824947140069066831e-02,-1.010848273374831685e-01
-3.788909407792286077e-02,-8.409232111024692036e-02
-3.611516024339599118e-02,-7.341127528317406559e-02
-3.363729022683816655e-02,-6.737841690254420257e-02
-2.959628435642744707e-02,-6.513389060282812060e-02
-2.670430546104254205e-02,-6.369280127253129642e-02
-2.548919473401960178e-02,-6.198592652671937320e-02
-2.490542766531723268e-02,-5.992775803955166514e-02
-2.689323371079445357e-02,-5.613351153242336633e-02
-2.823052435004428165e-02,-5.195085807447463733e-02
-2.972544519998633963e-02,-4.871065557731416029e-02
-3.158600691469927446e-02,-4.730434275566532121e-02
-3.298947615591233534e-02,-4.903289933370985620e-02
-3.433251183146752289e-02,-5.171233691255984477e-02
-3.481431921843979038e-02,-5.087891215700467151e-02
-3.550605495900188702e-02,-4.581956915670759578e-02
-3.584641564586947549e-02,-3.935133564205971213e-02
-3.659290303260948063e-02,-3.496386199029870995e-02
-3.672504586173128138e-02,-3.485863119430331059e-02
-3.563193355988474031e-02,-3.658329595478762575e-02
-3.233025173014640596e-02,-3.558996598828848695e-02
-2.640559417291402783e-02,-3.193478241236267362e-02
-1.909820055195735750e-02,-2.856705914479167746e-02
-1.093962154419862373e-02,-2.733675223763144119e-02
-3.957298934237229830e-03,-2.843863060214542673e-02
1.216221842421127399e-03,-2.729879802817721662e-02
5.369182680443357163e-03,-2.073512342444388742e-02
1.002470158118117655e-02,-9.992275294456093304e-03
1.488720940761150725e-02,3.369175757433752732e-03
1.760320601882683217e-02,1.505399080756636421e-02
1.487135703736967504e-02,2.333964732960671848e-02
5.336641328327632050e-03,2.894971395732472141e-02
-1.009757524542977299e-02,3.158595116177124323e-02
-2.680956968507552246e-02,3.364277800440439864e-02
-4.113469283401773036e-02,3.665365047867914783e-02
-5.253560948183574192e-02,4.147399715932224840e-02
-5.865758204965853401e-02,4.836783473038881731e-02
-6.158230759564030377e-02,5.414234665878059349e-02
-6.205004859631688130e-02,5.700529202604751045e-02
-6.101787928562242558e-02,5.656296262884635134e-02
-6.123537382283399111e-02,5.449821028628239195e-02
-6.211751748780566795e-02,5.439500243588256401e-02
-6.383171293035649896e-02,5.799484257570647339e-02
-6.493034436930977815e-02,6.405033771121293462e-02
-6.528954228368749613e-02,6.843909686661521496e-02
-6.553306172648443173e-02,6.833932442961038189e-02
-6.522481116458210548e-02,6.280424933780275054e-02
-6.500623492339291376e-02,5.306389628053340135e-02
-6.432379437851495907e-02,4.235351451978357912e-02
-6.307353353019258535e-02,3.123178375347489960e-02
-5.822315759393686951e-02,1.868361941537378945e-02
-4.150892885322867570e-02,5.146268983432367508e-03
-3.547230243331010897e-03,-8.157478629492499050e-03
6.827539494124251762e-02,-1.904235932576127388e-02
1.747429325211795059e-01,-2.466934239144303459e-02
2.854160380344326065e-01,-2.560021722054552779e-02
3.573880619794959634e-01,-2.570723281569349192e-02
3.493913853582685802e-01,-2.604629158529213687e-02
2.523635986188954572e-01,-2.744022140014312078e-02
1.082549595911503487e-01,-2.913059509260405161e-02
-2.327747173858615154e-02,-2.738736940638274511e-02
-9.607834032611217712e-02,-2.325980740069310757e-02
-1.078630284081527613e-01,-2.009016462655895813e-02
-8.386864067296002923e-02,-2.017926689413337971e-02
-5.404758728119048172e-02,-2.434543077897735261e-02
-3.839055984219250095e-02,-3.017585062388518369e-02
-3.455705773393678154e-02,-3.440773926816390049e-02
-3.593280438399541754e-02,-3.579128051081727907e-02
-3.762724434949612368e-02,-3.509856765575041643e-02
-3.752415031817155078e-02,-3.410264631733259111e-02
-3.525908083369225926e-02,-3.318675480498954611e-02
-3.178076699445974568e-02,-3.214535883245026038e-02
-2.902352339602824044e-02,-3.186415202574732763e-02
-2.625342050318732467e-02,-3.215790223008561932e-02
-2.378530778715021859e-02,-3.206728562082883371e-02
-2.206986334948186565e-02,-3.072333909698628934e-02
-2.098184133075926133e-02,-2.763893201374280351e-02
-2.043171954878578167e-02,-2.261274378864217352e-02
-2.030008297250581600e-02,-1.732962957264271020e-02
-2.033791404439984352e-02,-1.261590802094515740e-02
-1.911227998305887674e-02,-7.808195150284275889e-03
-1.713715443176415734e-02,-3.783501990847148132e-03
-1.345527596505171480e-02,-8.403244772602959942e-04
-8.525476868894297372e-03,1.542007674036086464e-03
-3.505890839838647199e-03,4.109407807118652979e-03
2.014662422896184180e-03,7.492145703336549126e-03
7.050687688798459168e-03,1.355370949161419092e-02
1.244031749408506735e-02,2.265481796832974348e-02
1.888116199595987407e-02,3.370368737160901046e-02
2.587367397431716842e-02,4.590928363279860036e-02
3.251828169159946824e-02,5.711421752681906938e-02
3.858625425842820977e-02,6.402041346834275171e-02
4.395153470318831357e-02,6.481273079288082939e-02
4.927763919052421948e-02,5.982400954207181543e-02
5.585737084549089598e-02,5.050491987244932340e-02
6.354179539699564283e-02,3.987295831381771488e-02
7.214585965337283469e-02,2.883701140238934674e-02
7.960895200007814254e-02,1.628541830990950720e-02
8.581247545199655047e-02,1.118350979068810560e-03
9.297087886139619728e-02,-1.669658305353613481e-02
9.977231073537656814e-02,-3.294420903801970751e-02
1.092587898489567472e-01,-4.280057452679580932e-02
1.212786134811140865e-01,-4.626138301845000161e-02
1.312517482119151535e-01,-4.547746927049362703e-02
1.404004382094204972e-01,-4.564125726434015151e-02
1.459547883574921767e-01,-5.102338534077638377e-02
1.475622935102494926e-01,-5.898644399339678102e-02
1.468300520146033628e-01,-6.517386429116119040e-02
1.442933585558172360e-01,-6.655814724433953278e-02
1.410140219415101648e-01,-6.265803651785643857e-02
1.341625578679014330e-01,-5.722728648410441848e-02
1.240338812253434231e-01,-5.391158452359801762e-02
1.086477683019654028e-01,-5.232675979308242659e-02
8.815431200770321163e-02,-4.953844113193202336e-02
6.664292430919481480e-02,-4.023703315399580760e-02
4.449765442149007655e-02,-1.713763754484393109e-02
2.418918998380149843e-02,2.857409948708648090e-02
6.752459600086717882e-03,1.058769529836350309e-01
-7.814380482129732949e-03,2.142846822710278432e-01
-1.889954996886279714e-02,3.305549900107939698e-01
-2.688628939309013061e-02,4.169889963017548995e-01
-3.256626325285265355e-02,4.288142028012776330e-01
-3.743325358043765594e-02,3.477660029029010502e-01
-4.153777366897009465e-02,2.014857812120147973e-01
-4.569046177935712910e-02,3.436837082846905950e-02
-4.974992254124294827e-02,-9.486548016264387262e-02
-5.254915515480054755e-02,-1.587379135685333120e-01
-5.411431383750395230e-02,-1.669575357814924166e-01
-5.414860872422797011e-02,-1.385850066916417267e-01
-5.369500469503712264e-02,-1.048461086881865428e-01
-5.318862376732606811e-02,-7.961967823545629264e-02
-5.330793293417829953e-02,-6.564817427387865945e-02
-5.456572697974202552e-02,-6.168544134970815884e-02
-5.518948480699503722e-02,-6.157207298578462606e-02
-5.500609047023300585e-02,-6.354464641166637784e-02
-5.304455367257621123e-02,-6.533681550492029255e-02
-4.784418061483878409e-02,-6.483899344791971275e-02
-4.256614807677488316e-02,-6.231056064046920639e-02
-3.806299500957003451e-02,-5.775628617481140537e-02
-3.513696108138708585e-02,-5.164219337423594375e-02
-3.527772889357354280e-02,-4.626463941380874051e-02
-3.495590288182603977e-02,-4.243530117891090858e-02
-3.336863576778904827e-02,-4.131499918375350355e-02
-3.084131049772592670e-02,-4.275902157652684832e-02
-2.704803543952750966e-02,-4.375212698339854545e-02
-2.374921114640361763e-02,-4.265155850622418671e-02
-2.264540284321994029e-02,-3.896618445680966741e-02
-2.281483333229349098e-02,-3.420141454521821722e-02
-2.463689114336723926e-02,-3.090464202616903522e-02
-2.860243392872138107e-02,-2.875613592562292764e-02
-3.172221747160559879e-02,-2.701168525984797009e-02
-3.485718123914488542e-02,-2.377349603008104342e-02
-3.773079460444958566e-02,-1.816387954033117993e-02
-3.930091752220266077e-02,-1.305698419137880234e-02
-4.087787439919052246e-02,-9.644700970892587655e-03
-4.229092167957130416e-02,-8.610847378272088598e-03
-4.283835496548177996e-02,-1.053155681953322695e-02
-4.179771766353356649e-02,-1.300032288534264981e-02
-4.024755147363795471e-02,-1.324366170243636981e-02
-3.802274561341907611e-02,-1.055119950761708100e-02
-3.664569265331876768e-02,-4.014517090808144423e-03
-3.765197760035294411e-02,6.996145352346095497e-03
-4.020184413721150651e-02,1.897023890917328565e-02
-4.413200993733568112e-02,2.986904077552467521e-02
-4.740882256243755810e-02,3.827273563364042008e-02
-4.903866283707926377e-02,4.082021298402298271e-02
-4.890696666182877544e-02,3.986703172238141579e-02
-4.712551752225656310e-02,3.846171778256677470e-02
-4.559217524837834434e-02,3.797330660947938891e-02
-4.479088020555783284e-02,4.126853806577243655e-02
-4.513175411858101616e-02,4.755007984930315762e-02
-4.623065132458736848e-02,5.371441266078670618e-02
-4.712626675289448980e-02,5.849745924689572774e-02
-4.749503147916452062e-02,6.003125955453206264e-02
-4.728014165697913551e-02,5.820953320123223307e-02
-4.694784881241985397e-02,5.497348938358131987e-02
-4.636906220438913317e-02,5.025498418748666762e-02
-4.643693646963772959e-02,4.398165996377530890e-02
-4.694935270835652596e-02,3.705270041711791057e-02
-4.812363427727754661e-02,2.766318149540643312e-02
-4.945794037227387030e-02,1.596377538477381647e-02
-4.927432174209415983e-02,4.360266032078000641e-03
-4.822051287396260377e-02,-7.249497883941642684e-03
-4.644866501522416924e-02,-1.647062846654148358e-02
-4.468527249364552534e-02,-2.226884684807186460e-02
-4.448642511851735870e-02,-2.608890938344103627e-02
-4.471620226319111824e-02,-2.835589233043332019e-02
-4.423487859041286274e-02,-2.979123750684124772e-02
-4.386213565656808117e-02,-3.000728197450747148e-02
-4.250232178501953118e-02,-2.819005226228189429e-02
-4.075539180249499599e-02,-2.332450761489033436e-02
-4.029211620383107983e-02,-1.554238018090653949e-02
-3.974666878108591705e-02,-5.965373089483988304e-03
-4.027867261588392866e-02,2.635709774595642371e-03
-4.180735926871111119e-02,4.898961357665140848e-03
-4.224724427128306870e-02,-1.966596776715766933e-03
-4.059744438133577882e-02,-1.799922830402157087e-02
-3.642484751836137791e-02,-3.858689925616896194e-02
-2.963193532783689813e-02,-5.593280450264333237e-02
-2.114723942273009222e-02,-6.498242570775294991e-02
-1.314753872597155746e-02,-6.402405177471930109e-02
-5.006478348893153053e-03,-5.631225589391553737e-02
3.037768290247231349e-03,-4.614440327375012030e-02
1.072074157134749427e-02,-3.827128199592925994e-02
1.843627266798880324e-02,-3.520721085897102198e-02
2.514984560236221967e-02,-3.553505659949866835e-02
3.045124107567741267e-02,-3.768752354567828089e-02
3.263910438817843596e-02,-3.772021902550629080e-02
2.865453840714239989e-02,-3.398953190083738723e-02
1.854189693010813850e-02,-2.790599642218518500e-02
3.415855428096528038e-03,-2.092156050113797017e-02
-1.506791927885595822e-02,-1.511571975631431988e-02
-3.087889114754277520e-02,-1.188202568613655474e-02
-4.242458881423408212e-02,-1.021484237398499230e-02
-5.066738893453048842e-02,-9.133050214251581950e-03
-5.447077661104285373e-02,-8.030338758584051190e-03
-5.694750558894616510e-02,-5.925205186349036257e-03
-5.904690812537743971e-02,-4.087385199517534241e-03
-5.940997556232371218e-02,-1.778410313228477894e-03
-5.865247244128135584e-02,1.583301177746119755e-03
-5.717033768261155224e-02,6.483308922316439495e-03
-5.663434038034913243e-02,1.361360308059057431e-02
-5.818068146527620443e-02,1.979541606762505110e-02
-6.188003304203645166e-02,2.493174907732531934e-02
-6.504756439344432095e-02,2.939958424940358750e-02
-6.542085205446809826e-02,3.499286605357963126e-02
-6.316919048739784437e-02,4.474714222605072345e-02
-5.935372661910955083e-02,5.521507345742576733e-02
-5.310713115217896574e-02,6.292267600158868435e-02
-3.411021823952254534e-02,6.483951455747959114e-02
9.058833942827916944e-03,5.896947553962174349e-02
9.307532686093916707e-02,4.821892850971462585e-02
2.207338311241981987e-01,3.597984368206306321e-02
3.526557157020921984e-01,2.340163577343196133e-02
4.424246706099460580e-01,1.110964212680768878e-02
4.445832390350619168e-01,-8.864298876968671782e-04
3.458396937681407768e-01,-1.317300938512630526e-02
1.962361265896727935e-01,-2.419927063448205212e-02
5.722658447501621781e-02,-3.173435951099376484e-02
-2.850020036227331882e-02,-3.731849755955413128e-02
-5.533738163959506240e-02,-4.378037086341023815e-02
-4.897896800959392061e-02,-5.143272815609213622e-02
-3.785436079037831497e-02,-6.131388895184905485e-02
-3.485447225819283262e-02,-6.947750009330676269e-02
-3.648725781004215352e-02,-6.898277910628902720e-02
-3.857999910764935841e-02,-6.010463654951031520e-02
-3.836411386030492976e-02,-4.671335782627582950e-02
-3.604896675048059607e-02,-3.525939318652111798e-02
-3.329203365821326033e-02,-3.151516541582627395e-02
-3.079356840646856747e-02,-3.336188803457522389e-02
-2.910638501919645196e-02,-3.104949730113469586e-02
-2.757052630212362965e-02,-6.522923676177586061e-03
-2.655549454936270010e-02,5.473622190294097356e-02
-2.485732723812823092e-02,1.539194508390412386e-01
-2.232434886279895461e-02,2.752042118457269093e-01
-1.990292453466183456e-02,3.785149602983562400e-01
-1.678965920425501412e-02,4.234941715151542274e-01
-1.368332373012055500e-02,3.815984694117168230e-01
-1.065592162141962285e-02,2.610699570968549321e-01
-7.315297826229257006e-03,1.034214109630459122e-01
-4.719533177058982641e-03,-4.554562433861238102e-02
-2.842996609074287511e-03,-1.406922660555553206e-01
-1.063726435224794653e-03,-1.738573659132836569e-01
6.021570673302901891e-04,-1.610184460111168114e-01
4.451964124145504735e-03,-1.261259153240049669e-01
1.056142806452055674e-02,-9.392491790435618382e-02
1.722875388008368591e-02,-7.251568479703701664e-02
2.379084585639790889e-02,-6.128730496539772088e-02
2.976678341037956171e-02,-5.574504327355357669e-02
3.582927315816422653e-02,-5.240171364792524378e-02
4.371684713100500164e-02,-5.099703831899176504e-02
5.340360267732384425e-02,-5.241981094303362759e-02
6.191993167945179094e-02,-5.367968224096822394e-02
6.817015360805819824e-02,-5.310788221627753269e-02
7.141241381717425285e-02,-5.262739800030147297e-02
7.258924817526304918e-02,-5.190091273370270319e-02
7.495667245742557161e-02,-5.293172995072471798e-02
7.910972153076550883e-02,-5.627848206059903741e-02
8.547054445780984111e-02,-5.744477311559031962e-02
9.394273147526445433e-02,-5.585029401315914910e-02
1.038870039320174826e-01,-5.302900655077203568e-02
1.148461103114607196e-01,-4.915588083509313949e-02
1.258523433984326534e-01,-4.532992813563395396e-02
1.369083116287478918e-01,-4.250531786855525629e-02
1.468487667800923158e-01,-3.894879637423726698e-02
1.547438007052999720e-01,-3.457191145822780670e-02
1.608151561999663914e-01,-3.097038318750391234e-02
1.628763770625470397e-01,-2.696274342902581916e-02
1.597345456077361447e-01,-2.322024552588326102e-02
1.524858650972798213e-01,-1.992096619305591329e-02
1.409552168829244501e-01,-1.460152700205885785e-02
1.263894066671103766e-01,-7.525087862612349354e-03
1.110085695923703208e-01,1.368286709313689840e-03
9.375892764716120542e-02,1.093740633430193877e-02
7.448823969004053636e-02,1.689197751989757537e-02
5.538482140116135488e-02,1.871810247344003753e-02
3.514799309375678249e-02,1.860373537742102817e-02
1.661334307307919811e-02,1.781576871444689320e-02
2.285412165147768845e-03,1.916114948121267619e-02
-1.002180922460431563e-02,2.267878732267670019e-02
-1.828374982083328520e-02,2.538000584982041258e-02
-2.398696922002428733e-02,2.845210520270114243e-02
-2.936817100448387008e-02,3.272881522912395730e-02
-3.326775651755423113e-02,3.903943932458075333e-02
-3.570811511002604938e-02,4.798012125337186573e-02
-3.698907414422697437e-02,5.588530662830985124e-02
-3.739573651558443512e-02,6.117293903682893830e-02
-3.723642747475499476e-02,6.299351249544436759e-02
-3.775569487182416084e-02,6.232955709880724088e-02
-3.824525052682053311e-02,6.275389764209045318e-02
-3.755122587662645950e-02,6.406662359676756902e-02
-3.596445418453567133e-02,6.445383846327623623e-02
-3.359265488350206968e-02,6.196948796158430195e-02
-3.226346323553486856e-02,5.461133467565022770e-02
-3.205500148101403379e-02,4.462177167289510527e-02
-3.231743261738741213e-02,3.446162493761523171e-02
-3.266877134159608398e-02,2.444293104677249320e-02
-3.178117503440243408e-02,1.498294237294105213e-02
-2.998228600608222882e-02,3.399393821310625965e-03
-2.805046535682200956e-02,-1.020793907288597598e-02
-2.669954440408251611e-02,-2.257459950614695843e-02
-2.581370908982059259e-02,-3.188139740712074566e-02
-2.463698801507031855e-02,-3.610045659483176322e-02
-2.381542120798839715e-02,-3.553707277854679242e-02
-2.260593282951326236e-02,-3.253505037816430134e-02
-2.191193950597056239e-02,-2.915080921678318837e-02
-2.322730848865243308e-02,-2.725736519826588850e-02
-2.535641602987366225e-02,-2.734673763634799110e-02
-2.774404260380038817e-02,-2.909888773454639282e-02
-2.947793103739947823e-02,-3.103214892198244770e-02
-2.943770834124491767e-02,-3.090323395153397878e-02
-2.880294284960833659e-02,-2.876278434185237584e-02
-2.858688822441068575e-02,-2.388854132666177327e-02
-2.868958842993257069e-02,-1.765800326389702427e-02
-3.060070897548299029e-02,-1.421776974167117229e-02
-3.214180805983340994e-02,-1.407011745262216722e-02
-3.381059333418119650e-02,-1.843484898899643010e-02
-3.539603375668386870e-02,-2.743449448033322136e-02
-3.475541023728520584e-02,-3.660393898715778860e-02
-3.458680951496025113e-02,-4.395101641827081629e-02
-3.417235101822458515e-02,-4.863224898046052125e-02
-3.495110249081602449e-02,-4.995206473742627024e-02
-3.757903062372620201e-02,-4.825708786637173536e-02
-3.980965402961479660e-02,-4.388721721011322463e-02
-4.100750716011988123e-02,-3.743334501833635308e-02
-4.032920642702307601e-02,-2.957957709783163441e-02
-3.936432152336081375e-02,-2.288708639211522317e-02
-3.917961342393184998e-02,-1.849544428426716514e-02
-4.015291797203920932e-02,-1.562369777239262097e-02
-4.219840628576628644e-02,-1.340598052834774366e-02
-4.316050941298649191e-02,-1.092049886825992300e-02
-4.232826132827772342e-02,-8.150304184786620609e-03
-4.076837246303488538e-02,-6.363891066452331477e-03
-3.913576904777518739e-02,-5.421389203863084816e-03
-3.807198704664972733e-02,-5.160327328130982598e-03
-3.879191695578707022e-02,-7.703820885494943108e-03
-3.973083421651818492e-02,-1.401105952106562400e-02
-3.980818382526420812e-02,-2.454473636943382137e-02
-3.959919237483927601e-02,-3.658626373159280104e-02
-3.880857909090767305e-02,-4.408395111228237406e-02
-3.844929411723131685e-02,-4.294630090975140591e-02
-3.828228474434069994e-02,-3.330146174957775845e-02
-3.866166612591128565e-02,-1.776810931504966412e-02
-3.913389567460087703e-02,-2.444887202616595132e-04
-3.895391099053537032e-02,1.410920677002003298e-02
-3.957317564768149387e-02,2.508778963585255734e-02
-4.000871727365914315e-02,3.422510838891928975e-02
-4.001614520154436055e-02,4.240869353673841491e-02
-3.982975382372629797e-02,5.333161075118543482e-02
-3.911127280954517643e-02,6.526521757993411499e-02
-3.826264441338272232e-02,7.316573024100175848e-02
-3.677587435220668749e-02,7.431896166700724393e-02
-3.613187272048932336e-02,6.721304228745797471e-02
-3.561512201561697899e-02,5.466164504140693520e-02
-3.509428030050388420e-02,4.076660982389514187e-02
-3.626894617242319707e-02,2.646922372709909627e-02
-3.651577850940389974e-02,1.171782341627831438e-02
-3.626498064442341962e-02,-3.967990829333892591e-03
-3.513381088421790865e-02,-1.936899608028038594e-02
-3.292659398138422788e-02,-3.170220730250949970e-02
-3.159526491232295814e-02,-4.006008994105483140e-02
-3.085748268952530349e-02,-4.442676044058378043e-02
-3.237573735175382217e-02,-4.637014394198855916e-02
-3.381652603876585117e-02,-4.681640213575929965e-02
-3.421110193843887592e-02,-4.519135344972002866e-02
-3.456672691557166610e-02,-4.236621050483471707e-02
-3.239771407156578908e-02,-4.032001431672199709e-02
-3.106378911641724527e-02,-4.129846258332550701e-02
-3.094267915558298471e-02,-4.644853352471074726e-02
-3.064332817043655122e-02,-5.433750927102640182e-02
-3.176265730160962586e-02,-6.110330741117915576e-02
-3.190638755566291979e-02,-6.188910737772265747e-02
-3.173160994074994412e-02,-5.271526830116207707e-02
-3.233422643789175127e-02,-2.703134826542150787e-02
-3.322728590238319818e-02,2.482631703660187483e-02
-3.469033613050678810e-02,1.087231610743824850e-01
-3.559765187070195597e-02,2.233859207029429972e-01
-3.509664678739752436e-02,3.424062649688748294e-01
-3.409655078344382695e-02,4.242845806999062663e-01
-3.326596593177117561e-02,4.310936895092039034e-01
-3.289812585795164057e-02,3.419201767966656424e-01
-3.276730957001684763e-02,1.864434751914629818e-01
-3.149965304359787777e-02,1.422858838083492297e-02
-2.951354512835107843e-02,-1.232763691686030727e-01
-2.647510550827797404e-02,-1.912214197813331962e-01
-2.167641936194282526e-02,-1.980383572239247103e-01
-1.594434837366517227e-02,-1.648863557093544485e-01
-7.939713867632543220e-03,-1.193911743885658905e-01
1.825118178401152281e-03,-8.231564132619861862e-02
1.172185476983422271e-02,-5.849579286722209059e-02
2.232826533304441835e-02,-4.909865571904043630e-02
3.083016528067671416e-02,-4.969376372331085756e-02
3.686895342855286972e-02,-5.383580669668074081e-02
3.967602369913873772e-02,-5.717918902601056702e-02
3.805596566124615221e-02,-5.712301206497534534e-02
3.524570227898825986e-02,-5.429464765737714027e-02
3.121165251824751380e-02,-5.040473696686779970e-02
2.549348047419695493e-02,-4.643047669113027631e-02
1.703694077618369065e-02,-4.185021005878615530e-02
5.941316478865310557e-03,-3.649491438111618358e-02
-7.580070711101061232e-03,-3.352986153069878461e-02
-2.090441545735811923e-02,-3.413629502011335248e-02
-2.967041777612679926e-02,-3.766295437885588959e-02
-3.588504821545113188e-02,-4.093421459378743243e-02
-3.894953661311046506e-02,-4.026552564259222589e-02
-3.937654342613030461e-02,-3.675798574102452643e-02
-4.028338259447512837e-02,-3.249159784288423169e-02
-4.173100711001243024e-02,-2.978765394737046407e-02
-4.457789873867398778e-02,-2.954741958600510393e-02
-4.922850966147090945e-02,-2.944376209316623694e-02
-5.472204136589998991e-02,-2.695137586996430856e-02
-5.899456568706296089e-02,-2.089143390439911208e-02
-5.997291401692838447e-02,-1.168079309912038906e-02
-5.757954291233420563e-02,-7.327513695092548098e-04
-5.355129731084114220e-02,8.817978240284138694e-03
-4.957897134457632526e-02,1.366243017600184996e-02
-4.571467385914833315e-02,1.491337341599676715e-02
-3.611341734546820448e-02,1.498893938853339443e-02
-9.832030767892128639e-03,1.654676097756080030e-02
4.570447498916214296e-02,2.167587274382825821e-02
1.413346207846369329e-01,2.791282114403066325e-02
2.612781238375928572e-01,3.209931268964695550e-02
3.648935642705492532e-01,3.324797596757853024e-02
4.069114749963172462e-01,3.387956100129098369e-02
3.557929619767547513e-01,3.701799657986346026e-02
2.304958116290260761e-01,4.305482209387142406e-02
8.748645141473852804e-02,5.026602902400086059e-02
-1.699108612851659567e-02,5.520644923417167282e-02
-6.103960751858745343e-02,5.768067906643137288e-02
-6.044112494581979633e-02,5.965457508952329291e-02
-4.307363898898414201e-02,6.283338103571629862e-02
-3.359227714619346383e-02,6.677470016118783325e-02
-3.255658985290348084e-02,6.807047867649199113e-02
-3.354141671052016105e-02,6.531626988070723949e-02
-3.401852248430360659e-02,5.940517365024317042e-02
-3.313358753329474771e-02,5.317507530142574074e-02
-3.278379266690129024e-02,4.886572309174132267e-02
-3.267621601273684728e-02,4.463333539570867037e-02
-3.287872826735098453e-02,3.759031742376792162e-02
-3.194730051758612466e-02,2.589539848133950994e-02
-3.085208136642576815e-02,1.122415479021247192e-02
-2.861631316862735946e-02,-2.033088889771191791e-03
-2.527169882678083346e-02,-1.061988435696803110e-02
-2.232893385297580330e-02,-1.362798011368793194e-02
-1.943560718286166042e-02,-1.321654971880424807e-02
-1.722597822228861056e-02,-1.217614531028670365e-02
-1.564513412536700648e-02,-1.304977320085345949e-02
-1.318906278240173160e-02,-1.740596154770372717e-02
-9.440181545751196585e-03,-2.436016704730438465e-02
-5.178460454415109021e-03,-3.145131557947315748e-02
-7.716906625706264084e-04,-3.611575638294965696e-02
3.297902842766134348e-03,-3.664365113049616873e-02
7.304761253068372574e-03,-3.416108671650076867e-02
1.105531314400814806e-02,-3.099727661917106580e-02
1.527358191213726117e-02,-2.686900713848054331e-02
1.988961993398245809e-02,-2.203310316136546446e-02
2.422781039650260398e-02,-1.462956497910753925e-02
2.886834348836654629e-02,-5.559279703240329121e-03
3.402537929046375864e-02,2.195119395784278439e-04
3.933794408079674398e-02,1.527305835677452003e-03
4.495082590150948493e-02,-3.262951521018219066e-03
5.065399864078370257e-02,-1.255366134818242801e-02
5.566571175604689836e-02,-2.069736250585426512e-02
5.968739592062922983e-02,-2.605223362213958394e-02
6.325432649549855846e-02,-2.850369630315128730e-02
6.624788548345544870e-02,-2.836931353019566185e-02
6.833269255664997655e-02,-2.825866196747168352e-02
7.131233064485967277e-02,-2.818421364193502907e-02
7.549241628953107242e-02,-2.669546799203688717e-02
8.199778534558421761e-02,-2.345732855499929950e-02
9.013310428663862117e-02,-1.934437995908272132e-02
9.795760828208020798e-02,-1.611443019646603692e-02
1.052004456646860736e-01,-1.490969963403057305e-02
1.099785624712473070e-01,-1.551941850867088329e-02
1.137428013943162647e-01,-1.597628768654121151e-02
1.160426550225511083e-01,-1.545931295701210260e-02
1.154280493035730742e-01,-1.343301226359579215e-02
1.134762669543978308e-01,-8.977049638633088219e-03
1.106329018954583798e-01,-4.003566908226769902e-03
1.072018886219038708e-01,9.406275547793215269e-04
1.016705006745681761e-01,5.118724500215937959e-03
9.241538175378916087e-02,5.362124212198584455e-03
7.856633353300085387e-02,2.995424880077436278e-03
6.103246512602172186e-02,5.193991787770182869e-05
4.409986773045639075e-02,-3.972406451491641323e-03
2.937892752495397525e-02,-7.658526613526752541e-03
1.687207741095464453e-02,-1.049426394641702655e-02
7.038151044453091684e-03,-1.282003990398947538e-02
-1.703864582684941776e-03,-1.372462791725404668e-02
-1.108588122353277097e-02,-1.264866937055674108e-02
-1.990465321000632615e-02,-9.748543937121068384e-03
-2.735364869868039950e-02,-7.303755268098281739e-03
-3.389266754622886901e-02,-6.242944905031301908e-03
-3.771872494297137668e-02,-5.541882207463696974e-03
-3.998968696720548582e-02,-6.253918254948307928e-03
-4.186806468639367451e-02,-7.600410722102552384e-03
-4.185425185922209135e-02,-9.404174113907343147e-03
-4.100334230340359210e-02,-1.379918996858486152e-02
-3.934363882108416616e-02,-2.055958090083718701e-02
-3.793903065436933508e-02,-2.721499876728116635e-02
-3.799407792210329760e-02,-3.036786224870027806e-02
-3.784404677823671737e-02,-2.883054245430481319e-02
-3.737642213919097067e-02,-2.199877795031527847e-02
-3.565610969952411058e-02,-1.356801433742834719e-02
-3.321707647868164803e-02,-7.764754846237792094e-03
-3.096697841103840734e-02,-5.233321612049418939e-03
-2.849921228989077404e-02,-7.051327601482878724e-03
-2.518117325110870441e-02,-9.747515523091323728e-03
-2.063797975601614626e-02,-1.119859607773457215e-02
-1.637381684772607968e-02,-1.018999863841427676e-02
-1.277046964623051659e-02,-5.309234976523419768e-03
-1.133770695206597068e-02,9.455012758117604336e-04
-1.111034575169761972e-02,8.656095969047070821e-03
-1.048556567348933252e-02,1.760381295316354802e-02
-1.042621580065845183e-02,2.719646890414809809e-02
-9.957626938628900970e-03,3.783423508386334760e-02
-1.089907384974958884e-02,4.789333029259834618e-02
-1.418267295142001082e-02,5.585276281715489954e-02
-1.738510106286473428e-02,6.085705471575954262e-02
-2.137863958107415890e-02,6.157078842446744860e-02
-2.457978904808295895e-02,5.787073854818440555e-02
-2.719443758254506960e-02,5.028442414945172301e-02
-3.048644205299650550e-02,3.849236203991181215e-02
-3.318571210796635029e-02,2.480673479258926895e-02
-3.628074283120352045e-02,9.696281909813335084e-03
-3.803743384168550151e-02,-6.194770200725496605e-03
-3.931823564433065826e-02,-2.060829420491538250e-02
-4.076028860850262198e-02,-3.204863506519824157e-02
-4.159076683662475682e-02,-3.849903980025358441e-02
-4.218711174938376968e-02,-4.094842174434264181e-02
-4.081986869019461894e-02,-4.120098711808981018e-02
-3.742702618115426039e-02,-4.262189510399265469e-02
-3.261637620276301719e-02,-4.608705469778677510e-02
-2.840014369646743503e-02,-5.074095766500631016e-02
-2.719082519280738297e-02,-5.648354500096908204e-02
-2.913585935179778194e-02,-6.056559857939215752e-02
-3.367819580451374140e-02,-6.314060698785099734e-02
-3.830913500187555637e-02,-6.269989132880227078e-02
-4.144389678278496969e-02,-5.602744624592204820e-02
-4.260335123577177474e-02,-4.302193632306649390e-02
-4.217526893863782905e-02,-2.193441509458461669e-02
-4.172021869333942395e-02,9.871671145587034013e-03
-4.220841793928095664e-02,5.875006661606100439e-02
-4.390910303946295862e-02,1.329444798471983991e-01
-4.608112338481985815e-02,2.334789249530340172e-01
-4.766527576417266959e-02,3.409461042395400265e-01
-4.678654689696132296e-02,4.211545307514827918e-01
-4.401379690736296341e-02,4.326086209555969897e-01
-4.056844539028085783e-02,3.540642749694565827e-01
-3.738666736163880067e-02,2.090268632477347843e-01
-3.582645233172749438e-02,3.850248057344077962e-02
-3.560097702913694873e-02,-1.001734258170907943e-01
-3.593065134084577616e-02,-1.737973534544259013e-01
-3.708328118196861645e-02,-1.878332413912054133e-01
-3.822373992570679557e-02,-1.597411325944964600e-01
-3.862688817592513368e-02,-1.205349788959700075e-01
-3.858889347834959516e-02,-8.655103550834383763e-02
-3.867431905921428492e-02,-6.220253158726441606e-02
-3.948972720396409092e-02,-4.849962045505075425e-02
-4.166786765269217541e-02,-4.279953506602703767e-02
-4.591377752634760723e-02,-4.574906863083020442e-02
-4.844225225161577497e-02,-5.477521458670091964e-02
-4.942539181092230061e-02,-6.421685589696557450e-02
-4.922537703855194013e-02,-6.909694662960064182e-02
-4.584762598456966487e-02,-6.651338398088524340e-02
-4.352757772322375651e-02,-5.821283043810020208e-02
-4.175260788438647785e-02,-4.890820119038366554e-02
-3.918622831169938509e-02,-4.254738553194152562e-02
-3.655116614122812940e-02,-4.099617932331742209e-02
-3.170787120588727109e-02,-4.347373044223087901e-02
-2.447847330600837201e-02,-4.664166596154420419e-02
-1.619013409992512212e-02,-4.718842736524969661e-02
-7.013720403890625135e-03,-4.501702144178418297e-02
3.762958331200794929e-03,-4.039266555322290619e-02
1.589096714179134145e-02,-3.505035969969207132e-02
2.811053900697125379e-02,-2.992853901669253330e-02
3.753903193114006831e-02,-2.513770430565825248e-02
4.212522750728481952e-02,-2.107352791467621139e-02
4.097138594468816009e-02,-1.883426873402586216e-02
3.738649397872108315e-02,-1.956159976245429311e-02
3.394105479455956226e-02,-2.053767281338300318e-02
2.895580850803484985e-02,-2.138764387047755941e-02
2.105447780387737292e-02,-1.982044318565860316e-02
7.606954550819665893e-03,-1.516166858866783637e-02
-9.542982498973760080e-03,-8.988539467373189013e-03
-2.588202584898097180e-02,-6.446577083163216974e-04
-3.857305624605053551e-02,7.308532244033661730e-03
-4.522142239861807328e-02,1.385287522385156636e-02
-4.779281565740814419e-02,1.800464936337798152e-02
-5.039030969497058227e-02,2.012703657531325976e-02
-5.307197110446963684e-02,2.239086643104214874e-02
-5.687512509272377170e-02,2.594869291247221821e-02
-6.141171478410724360e-02,3.241283497253248658e-02
-6.374812413026147151e-02,4.063046843470083380e-02
-6.390630143514226813e-02,4.980106238619868425e-02
-6.277692375625743004e-02,6.046601002709679762e-02
-6.171897683847306360e-02,7.084766338855937040e-02
-6.105398294779972035e-02,7.922340848125568324e-02
-6.093774283651035018e-02,8.311705473952724077e-02
-6.127426349533362376e-02,8.017975982516206690e-02
-5.874769346959707317e-02,7.168551013168583674e-02
-4.695291358358179290e-02,6.125065751998573504e-02
-1.679565987782805081e-02,5.271632882700705292e-02
4.559485523503016557e-02,4.712662813310796589e-02
1.518306855474838013e-01,4.341023951475647680e-02
2.830528239685408121e-01,4.040437940377948622e-02
3.956148940557363547e-01,3.647334748472352145e-02
4.425655768444653471e-01,3.012024123898186106e-02
3.903157749862355974e-01,2.141894293446914080e-02
2.598072552609636543e-01,1.040992317631853070e-02
1.110405206394233929e-01,-7.281988474779051233e-04
-4.499169373808030448e-05,-8.374899628285843375e-03
-5.111217360739336857e-02,-1.272989103574214374e-02
-5.659609961012972146e-02,-1.631333087299861526e-02
-4.564553065050327985e-02,-2.086307002026737897e-02
-4.009668138061826120e-02,-2.620745890462088806e-02
-4.013559349141955501e-02,-3.082960394179495855e-02
-4.031595275561433017e-02,-3.197139131643754462e-02
-3.751396681261272986e-02,-3.075853186888819271e-02
-3.465833370979115591e-02,-3.024032517300573319e-02
-3.497396530212061594e-02,-3.099571848202483521e-02
-3.735497788378467493e-02,-3.243202937009384557e-02
-4.086170363803202921e-02,-3.361649773742837743e-02
-4.205471873933052523e-02,-3.372566486819950082e-02
-3.944234561126092747e-02,-3.346884825952973347e-02
-3.470636945089833336e-02,-3.453231199156169690e-02
-2.878791811212934662e-02,-3.631392422864959668e-02
-2.352535762411878117e-02,-3.867323331154748356e-02
-2.060220283587299583e-02,-3.984150011299477517e-02
-1.916574803451172315e-02,-3.940267825834535553e-02
-1.890304346270033770e-02,-3.863391687143700320e-02
-1.881705652495218456e-02,-3.644846246852723182e-02
-1.579046837104046419e-02,-3.476552584863114304e-02
-1.059937748793636156e-02,-3.389956741346206170e-02
-4.684201222804146476e-03,-3.290352511224373111e-02
1.735023084664587874e-03,-3.208853962057359871e-02
6.260754961725529394e-03,-3.005059330605961559e-02
1.015797772001329410e-02,-2.618474480895379569e-02
1.491159906458864974e-02,-2.109313721022574445e-02
2.034269090345687189e-02,-1.613753427943370039e-02
2.586775512702537902e-02,-1.190135125925265505e-02
3.064023426250038484e-02,-7.517756819752115585e-03
3.534044173029761426e-02,-2.887073894148085851e-03
3.987255713852329297e-02,2.464630618937891163e-03
4.413660968357001335e-02,7.292471158518581964e-03
4.913269506311702256e-02,7.985233711742747639e-03
5.331357120663902244e-02,4.456170072204491267e-03
5.891992263197097512e-02,-3.860598739928449048e-03
6.865891461579262667e-02,-1.641652647837454904e-02
7.967299861734827848e-02,-2.892123242386225937e-02
9.282920897548932460e-02,-3.919737219903389469e-02
1.052960364804517990e-01,-4.492867601113737647e-02
1.142305085115847413e-01,-4.448349891583169846e-02
1.221240658996071426e-01,-4.020650927801000529e-02
1.281274833904238464e-01,-3.502076313591786366e-02
1.325314756511042913e-01,-3.060077578482112495e-02
1.371715647990493503e-01,-2.863021307650004052e-02
1.405738336554799850e-01,-2.846097362238906442e-02
1.424464519731268586e-01,-2.706487970161615408e-02
1.426471546968789417e-01,-2.413322623321372679e-02
1.392718606523237757e-01,-1.939131636043392448e-02
1.322022190593845070e-01,-1.456116514071089350e-02
1.218642799632091434e-01,-1.368817002613130843e-02
1.081339609073944941e-01,-1.615078876535681884e-02
9.253599453037397726e-02,-2.009987883563041366e-02
7.647302159265249866e-02,-2.227222953407382439e-02
6.007082689359344307e-02,-1.933742319844995033e-02
4.459770523117898011e-02,-1.258678013795104696e-02
2.952816720177703705e-02,-4.828861317960862765e-03
1.467641780955449352e-02,1.108193399885983423e-03
1.045765768075272370e-03,4.228535662600046291e-03
-1.051696185559037287e-02,7.284110641477607902e-03
-1.967158911776601543e-02,1.288491620736973917e-02
-2.672022196073277345e-02,2.235312374627886067e-02
-3.195538053548978991e-02,3.479878167850694592e-02
-3.608067702343620287e-02,4.565382063009701397e-02
-3.930162018064832508e-02,5.139785773356686516e-02
-4.098013991687859264e-02,5.068815723537792306e-02
-4.085457236329027852e-02,4.264472761791666261e-02
-4.098019188341402164e-02,2.885145999930743832e-02
-4.107216087521021325e-02,1.219313894111874463e-02
-4.113320834610137422e-02,-5.008217974816868423e-03
-4.229360161372694438e-02,-2.009072813247149772e-02
-4.310874865780510434e-02,-3.152719393567250672e-02
-4.278053914349838616e-02,-3.956363171766280606e-02
-4.207484054029091147e-02,-4.352801802129541153e-02
-4.085410590111863971e-02,-4.337021637507729871e-02
-3.924873899705302871e-02,-4.046296877671570758e-02
-3.949702775583733422e-02,-3.635063120880381582e-02
-4.148010171957600828e-02,-3.481002744776180713e-02
-4.431501229754666177e-02,-3.744918722038766828e-02
-4.676696154093169799e-02,-4.189935824409632414e-02
-4.673049593539622959e-02,-4.553517617935594342e-02
-4.359180321201724939e-02,-4.599674185327308484e-02
-3.852912593781770978e-02,-4.308367116979069933e-02
-3.297551437553995768e-02,-3.882787785278112025e-02
-2.796621780010391523e-02,-3.312631920730784579e-02
-2.497495065846824444e-02,-2.238779277414066488e-02
-2.373125060606591508e-02,3.412205167706950076e-03
-2.397028777656931911e-02,5.862810500142760783e-02
-2.575175772187272144e-02,1.494333594178403890e-01
-2.774569660830353973e-02,2.659902699044955909e-01
-2.887324255030541270e-02,3.762662735946963322e-01
-2.955424064202710407e-02,4.376177424351999079e-01
-2.966329530750401108e-02,4.144410845273888144e-01
-3.046195215389892186e-02,3.082059102875481793e-01
-3.323142197953575516e-02,1.528905011721972407e-01
-3.642468118193235849e-02,-5.363484116728829687e-03
-4.070402905204917321e-02,-1.159609849923634028e-01
-4.445173579083811638e-02,-1.664771176191718050e-01
-4.613080718389135637e-02,-1.660268196258931628e-01
-4.731076068211163832e-02,-1.340754803975228726e-01
-4.657649644887171952e-02,-9.870250273601566260e-02
-4.543186541646559995e-02,-7.075683797176493539e-02
-4.445279674231103484e-02,-5.484690293110318360e-02
-4.302636291005293434e-02,-4.907826551078924709e-02
-4.234043674398599300e-02,-4.721413850290430425e-02
-4.119939700169485824e-02,-4.598713708142668222e-02
-4.091340588810295220e-02,-4.438273227072257743e-02
-4.156345024433677482e-02,-4.313330550541768366e-02
-4.173867746960237268e-02,-4.269611110591658987e-02
-4.214812573143256191e-02,-4.250225364734558364e-02
-4.188102166350489430e-02,-4.030241111754233330e-02
-4.061733887083915362e-02,-3.599439046941779047e-02
-4.008080069698932019e-02,-3.128602982737123395e-02
-4.016152124413854135e-02,-2.847202512252162976e-02
-4.161972649750505376e-02,-2.869408487293188120e-02
-4.438614526671237626e-02,-3.049562123216727205e-02
-4.634726209160630606e-02,-3.269261923489057142e-02
-4.645963578209662270e-02,-3.342605847120493079e-02
-4.500105083421691854e-02,-3.307870756202781204e-02
-4.341121956959340111e-02,-3.172884023061516706e-02
-4.299051727456110888e-02,-2.816503076256529972e-02
-4.497044168415734178e-02,-2.317622573092542604e-02
-4.713821081929650547e-02,-1.747578021237052026e-02
-4.738801527555872029e-02,-1.246452529736587732e-02
-4.660073812515108660e-02,-8.941239733481220336e-03
-4.516064075686794521e-02,-6.546054160045539257e-03
-4.397592925045849116e-02,-3.047139026091997410e-03
-4.466330083462009826e-02,4.313157558224920904e-03
-4.540367155818789136e-02,1.398414048747778984e-02
-4.469848087886381383e-02,2.304973863171611709e-02
-4.398121264341472991e-02,2.937823045620553686e-02
-4.247785551133417825e-02,3.009623544593123881e-02
-4.114053969736689714e-02,2.701174180459623569e-02
-4.182609392130366699e-02,2.564665101422056170e-02
-4.291480251159626724e-02,2.820538242280755392e-02
-4.470327087981973424e-02,3.552293581920237808e-02
-4.773762536557486780e-02,4.721147813055322218e-02
-4.925460218517344058e-02,5.972279381275461679e-02
-4.887823608590459445e-02,7.057563489317905669e-02
-4.740713835419377298e-02,7.998996709576879083e-02
-4.441257295849317804e-02,8.650996852823897298e-02
-4.191407455486252653e-02,8.888305543089222716e-02
-4.207644282675535030e-02,8.748569743258424736e-02
-4.333105000502754378e-02,8.205017423474453286e-02
-4.485872069462162881e-02,7.507446216293814367e-02
-4.627736074814722822e-02,6.957295346524930424e-02
-4.622902647650427299e-02,6.603929368589583904e-02
-4.426506816463249283e-02,6.217031847807534539e-02
-4.042891081748647975e-02,5.532163652292490519e-02
-3.460902935705238020e-02,4.562349123166126175e-02
-2.565925091795471027e-02,3.395604229695663862e-02
-1.541604312241177943e-02,2.321467640138423494e-02
-4.829011575368452776e-03,1.522721680355835355e-02
6.746060150138259368e-03,8.379295255994741176e-03
1.893400893382563357e-02,2.588170463969940906e-03
3.086033318659490293e-02,-1.273446377499310150e-03
4.093714849088840591e-02,-3.163203981486052870e-03
4.722205314237635371e-02,-2.627976250971583976e-03
4.679289263011410932e-02,-1.935855379938065599e-03
4.245740479212823520e-02,-3.529228450788667818e-03
3.625109709184164142e-02,-7.496369669846633145e-03
2.697128732371453091e-02,-1.466729734929651807e-02
1.588135157139004133e-02,-2.352485439624680055e-02
2.407104471719349100e-03,-3.272196544077240338e-02
-1.313902424938821756e-02,-4.193910938151824974e-02
-2.740953983861005999e-02,-4.834670141744506350e-02
-3.899303255347184860e-02,-5.005026432408327813e-02
-4.873761670588807465e-02,-4.829820972569408288e-02
-5.636396667473876632e-02,-4.584159058374998735e-02
-6.240006815104778837e-02,-4.470725199875790618e-02
-6.738877941025550600e-02,-4.551920723983209072e-02
-7.124589477154785744e-02,-4.549234953680465765e-02
-7.333282702642855699e-02,-4.147297709026644130e-02
-7.350780757661902476e-02,-3.365236587238484844e-02
-7.174498359747956411e-02,-2.342696138722362431e-02
-6.781300554501062949e-02,-1.385367367909331841e-02
-6.452636006987631789e-02,-7.319898215274590718e-03
-6.329930082298790284e-02,-5.062383971241294148e-03
-6.279077601266766506e-02,-7.294156311195021565e-03
-6.414619851902148007e-02,-1.203169577854354758e-02
-6.321644177856915181e-02,-1.611393688203050303e-02
-5.071135663526141896e-02,-1.782035650390672091e-02
-1.767698045368132354e-02,-1.877783543966836388e-02
5.155627337870088978e-02,-2.055392177344805837e-02
1.684379737486507156e-01,-2.450317839517750229e-02
3.087253140135260976e-01,-2.838913398209954794e-02
4.242281400186732054e-01,-2.775046794546633111e-02
4.669113464769559241e-01,-2.324379624308175671e-02
4.026763431513794567e-01,-1.735666443591980801e-02
2.586144552044515876e-01,-1.421809990716964289e-02
1.012817463891321768e-01,-1.603281731411055830e-02
-1.372068036921680542e-02,-1.848578469347336717e-02
-6.393799563856883417e-02,-1.937130353992277260e-02
-6.554438509657964373e-02,-1.762606447747755434e-02
-4.875668188961537752e-02,-1.350339966591301843e-02
-3.735995667686219102e-02,-1.099413441853275622e-02
-3.399042192522937211e-02,-1.060165818535168877e-02
-3.247698901126731819e-02,-1.197665424415556880e-02
-3.257590407120841691e-02,-1.514951002569293013e-02
-3.309938356632870921e-02,-1.858561655081507336e-02
-3.315803161619049200e-02,-2.104332520921258637e-02
-3.424737902829466663e-02,-2.155777453314685482e-02
-3.460243307812718716e-02,-2.144309217700089698e-02
-3.420929519809065567e-02,-2.205660726256663401e-02
-3.345730254061544950e-02,-2.398334458904668315e-02
-3.164190204843243814e-02,-2.790464872380916256e-02
-2.903844185081847634e-02,-3.075496462024866068e-02
-2.506974806491790719e-02,-3.079959479249641183e-02
-2.019383775759285224e-02,-2.885148846706892672e-02
-1.619074466733583934e-02,-2.348546568088716660e-02
-1.426956874820908133e-02,-1.634692125878771038e-02
-1.370964900402658372e-02,-1.030259307785997072e-02
-1.411657926018345006e-02,-6.499208440815491122e-03
-1.277639607820665185e-02,-8.065182156437368868e-03
-7.790353347120684488e-03,-1.408472731072351464e-02
-1.728700388689926063e-03,-2.031027379115244585e-02
4.923271456266931252e-03,-2.429551437608236039e-02
1.061691614604138786e-02,-2.514922104422292679e-02
1.500385789436241638e-02,-2.385425376177794862e-02
1.997553022483743168e-02,-2.239889400144115875e-02
2.589560633528242839e-02,-2.114615814263384394e-02
3.191563076057937071e-02,-1.817598669239894188e-02
3.671666499668539696e-02,-1.243856218305645564e-02
4.079865533171337516e-02,-4.574453489748909855e-03
4.421152078933623941e-02,4.916270903068893465e-03
4.819453090906648113e-02,1.523402673143987168e-02
5.424927353297878674e-02,2.494146717361997445e-02
6.239384747786912849e-02,3.611315489783907540e-02
7.202561244616345615e-02,4.842361418800182615e-02
8.264984001997036089e-02,5.851280318468956437e-02
9.322226251522465479e-02,6.398626242518470897e-02
1.018006329105864416e-01,6.106828042906983084e-02
1.086321646220190923e-01,4.928734833509699348e-02
1.142242644191125700e-01,3.278186264948239337e-02
1.195615417632930333e-01,1.596083510112890000e-02
1.259959211284161218e-01,1.475258133091071708e-03
1.327975805704495194e-01,-1.065894660506311840e-02
1.391305158252417740e-01,-2.201928562339915824e-02
1.428249466051512429e-01,-3.410175741542507272e-02
1.426914377055505390e-01,-4.690912519179546436e-02
1.399476660019358942e-01,-5.848889678816836940e-02
1.349677791281096717e-01,-6.685806213715551893e-02
1.285107793842152901e-01,-7.073628290785222150e-02
1.218428646431743562e-01,-7.032104812731476695e-02
1.131110221281706185e-01,-6.675040161073507450e-02
1.011854051701670393e-01,-6.163441092552207623e-02
8.600846550374655064e-02,-5.677054768824454922e-02
6.752838596018714834e-02,-5.389916405512652775e-02
4.843486886947825920e-02,-5.239871083333690061e-02
3.107550087251804635e-02,-4.937069191740944829e-02
1.687538200412824416e-02,-4.073493691982933707e-02
5.665148194986167896e-03,-1.776468078845141324e-02
-3.855265408418385130e-03,2.912061122979523256e-02
-1.320421751786896372e-02,1.043980941247228400e-01
-2.198799483664173882e-02,2.071559879488817368e-01
-3.025036109284067257e-02,3.156181657823069475e-01
-3.613392769559144874e-02,3.948090998142106400e-01
-3.813340229639089474e-02,4.122871595934530231e-01
-3.802086486480089900e-02,3.444135370356251613e-01
-3.469129466653132765e-02,2.111916623065814846e-01
-3.143672533575614381e-02,5.358528989396989239e-02
-2.997360128423521772e-02,-8.237211169485633699e-02
-2.911018715745154056e-02,-1.571569459426657156e-01
-3.072741366060043403e-02,-1.726862873421991518e-01
-3.215529413210867216e-02,-1.483951737652400571e-01
-3.220303237448023104e-02,-1.117559708010670561e-01
-3.201144545345221970e-02,-8.486615556907833868e-02
-3.065516834040401400e-02,-7.162640430214167742e-02
-3.025837820320837271e-02,-6.789134040907432444e-02
-3.156725376972051300e-02,-6.665927477930494449e-02
-3.318199444264365722e-02,-6.339223040436671452e-02
-3.593233167579046317e-02,-5.863722345113907275e-02
-3.662038183799635332e-02,-5.460445882330806217e-02
-3.615700813995548907e-02,-5.142272898318135665e-02
-3.496781709011728689e-02,-4.973477406385459071e-02
-3.028197696880222112e-02,-4.809055746240047113e-02
-2.671442893958389520e-02,-4.569538403253055325e-02
-2.226919056145224007e-02,-4.384299411739960017e-02
-1.855578421942629536e-02,-4.295450264260026324e-02
-1.872088064966108759e-02,-4.290545313685738271e-02
-1.907313838183990681e-02,-4.225002311300098123e-02
-2.039243506534248185e-02,-4.032690980340498943e-02
-2.080606704450490424e-02,-3.821142064193039367e-02
-1.957919603970271691e-02,-3.790639407012003081e-02
-1.871351293784245112e-02,-3.984030872948021024e-02
-1.869105163534865582e-02,-4.147253871384520840e-02
-2.050321483058185207e-02,-4.056286695907572459e-02
-2.355020243456498741e-02,-3.677487411378474458e-02
-2.736883337548613043e-02,-3.155850644666871596e-02
-3.126024044742525126e-02,-2.760488783547253994e-02
-3.504317691740582025e-02,-2.460556281999631140e-02
-3.880059185732688543e-02,-1.958512517499601951e-02
-4.120699955419399041e-02,-1.238179120912095456e-02
-4.287151760019540514e-02,-4.177148235019165039e-03
-4.206280582042577765e-02,3.312285551052692942e-03
-4.044251592606892126e-02,8.930928642055475930e-03
-3.960969700495332868e-02,1.569547306089959238e-02
-3.890145332048801363e-02,2.602672968480261931e-02
-4.066762078587819740e-02,3.794752470455373811e-02
-4.174095284182482990e-02,4.833284725316387698e-02
-4.188555635907002805e-02,5.359294171493515779e-02
-4.198591197309634038e-02,5.287233752609866999e-02
-4.149158193175574161e-02,4.950835296186782697e-02
-4.238568089590788457e-02,4.699813003216617158e-02
-4.471187813708819847e-02,4.714089038406297366e-02
-4.725141544324293341e-02,5.104182459391842092e-02
-4.884334422024447925e-02,5.775969760202902259e-02
-4.992893749944921078e-02,6.519637130065894515e-02
-4.892459306306938538e-02,7.199936761776051797e-02
-4.706748180183811109e-02,7.662582433352618794e-02
-4.632055988954836279e-02,7.923718381402120037e-02
-4.549856948826698499e-02,7.920721910036833402e-02
-4.672208525761174791e-02,7.605594922676953140e-02
-4.869759223971436429e-02,7.031132592148106597e-02
-4.985897995787322290e-02,6.151111706374162713e-02
-4.970537047863972380e-02,5.253887685294963278e-02
-4.757362317791130613e-02,4.548895773094993600e-02
-4.485279684481580792e-02,3.916014974092299483e-02
-4.260371904023350226e-02,3.314989363079977325e-02
-4.263415006575148325e-02,2.601662666343729918e-02
-4.417259357713008289e-02,1.638071489794829319e-02
-4.646262320815235103e-02,5.335983819548409043e-03
-4.822006362819392100e-02,-5.357120591710277935e-03
-4.837107822861895501e-02,-1.541806565962292042e-02
-4.736880047872858712e-02,-2.287618691797298903e-02
-4.555993473973867641e-02,-2.603283991208510395e-02
-4.477378498942476137e-02,-2.585156355453768762e-02
-4.427448055585357645e-02,-2.235219145178161254e-02
-4.403296227613776731e-02,-1.791377817041222079e-02
-4.307436294755920270e-02,-1.429042662722390840e-02
-3.965445070015907736e-02,-1.180220974683426211e-02
-3.498569443670032642e-02,-1.076226268313842591e-02
-2.883650356141095883e-02,-9.215457144118584937e-03
-2.243397267935506867e-02,-7.845225725293151001e-03
-1.465115112749583448e-02,-7.562202067621206017e-03
-3.667617461865581557e-03,-8.636320181232162371e-03
8.253996393965061518e-03,-1.192390320674947476e-02
2.050852020804108319e-02,-1.649656856425935764e-02
3.010541217155651705e-02,-2.017420045374669971e-02
3.357154168578348197e-02,-2.141755300169960463e-02
3.358503932270799630e-02,-2.009004229662843949e-02
3.006532131703604227e-02,-1.675247766118082363e-02
2.303976475286546519e-02,-1.388423494108917758e-02
1.321948372496745995e-02,-1.368028470836633349e-02
-4.596140764643254391e-04,-1.637285020546233941e-02
-1.621480866388159622e-02,-1.943880134694166151e-02
-3.158774650032340758e-02,-1.941862377561655653e-02
-4.507670325324127092e-02,-1.578270727501843509e-02
-5.545665133486468723e-02,-8.652527038762484676e-03
-6.118283057489624227e-02,-1.244521402311880376e-03
-6.430689390117384774e-02,2.828482797509563815e-03
-6.336743624226329197e-02,3.622284946383930778e-03
-6.021763043682736710e-02,6.698415370197715463e-04
-5.949545234164257956e-02,-4.354933323558188990e-03
-5.924070250650408098e-02,-8.820927912089281814e-03
-6.147163346237585063e-02,-1.151054523128646964e-02
-6.402022718016642244e-02,-1.220841772864577658e-02
-6.315858874664154188e-02,-1.224353087328391293e-02
-6.089741150840648209e-02,-1.290720210225729248e-02
-5.783870703698411331e-02,-1.427021452914098952e-02
-5.603180779865594985e-02,-1.472262620658475879e-02
-5.352881862493056447e-02,-1.278295048606653897e-02
-4.138260679435083744e-02,-9.017913829631208147e-03
-9.667621237122472205e-03,-6.491452075684543688e-03
5.525026303603647326e-02,-7.307409211981624915e-03
1.573283499386032847e-01,-1.174419028068094013e-02
2.693897490845817977e-01,-1.638786651514159698e-02
3.504428022101321316e-01,-1.669361226813348420e-02
3.575778493478027897e-01,-1.393682695057482657e-02
2.743236879921269744e-01,-9.922860981292585744e-03
1.368233122598283558e-01,-8.332131895981472608e-03
3.922867588542593154e-03,-1.190667244641926276e-02
-7.479090412032871060e-02,-1.692814397559368883e-02
-9.260668041922065497e-02,-2.146125394038174775e-02
-7.379396325083222019e-02,-2.544879922829919316e-02
-4.890045106638377798e-02,-2.785373553383150430e-02
-3.861064738311562744e-02,-2.898375166808368070e-02
-3.823682021961235383e-02,-2.897951979784127094e-02
-3.929165066545022705e-02,-2.648945546334628351e-02
-3.869150609168874044e-02,-2.212225243945229944e-02
-3.475911393410866662e-02,-1.844122216561379021e-02
-3.026317218647902804e-02,-1.666043095365457929e-02
-2.694415462010024687e-02,-1.568792861328844115e-02
-2.416264833745956908e-02,-1.386257104708450531e-02
-2.296209926014367020e-02,-7.500666023180418973e-03
-2.286782822078568117e-02,4.737580536119525426e-03
-2.323815017126645843e-02,1.726225011343263116e-02
-2.302537736613105221e-02,2.530905995233975053e-02
-2.176174869555371622e-02,2.610639556610384882e-02
-1.986428975517937762e-02,2.129041674802361478e-02
-1.628521447554893281e-02,1.812908201012389253e-02
-1.199849960697055469e-02,2.180016961277857560e-02
-7.558679667188423004e-03,3.232670439880340474e-02
-9.244309157044338938e-04,4.605325274095366933e-02
5.270089843218731321e-03,5.791227079387193527e-02
1.002204965628202341e-02,6.438244069921864043e-02
1.422868077936052800e-02,6.365262295581816665e-02
1.615538621416546389e-02,5.567412378979880866e-02
1.770943923124846525e-02,4.260054032742191521e-02
2.059983003107385482e-02,2.509325595583118337e-02
2.508743749512331103e-02,4.886708171343389154e-03
3.053264110694966366e-02,-1.492775960926070490e-02
3.683335265914178258e-02,-3.297494114863615960e-02
4.252766848967253627e-02,-4.635992070930458619e-02
4.682961470208232835e-02,-5.220855361971783043e-02
5.160387178923295237e-02,-5.156486765539207429e-02
5.656597810485238659e-02,-4.670904564976897239e-02
6.324180842408660963e-02,-4.095180437703378751e-02
7.162102822849486516e-02,-3.992456113417278130e-02
8.019523750835309828e-02,-4.457064022775751588e-02
8.914848054753710116e-02,-5.330874591236982318e-02
9.613001394597832372e-02,-6.297304956660229602e-02
1.018691711906943576e-01,-6.713140133801805132e-02
1.071126290913201051e-01,-6.337495400256031031e-02
1.106493369516398095e-01,-5.165497478373722723e-02
1.154739821981374676e-01,-3.204543974707874804e-02
1.197368389221831753e-01,2.497675312412347276e-04
1.235118148153638851e-01,5.505050850893186687e-02
1.281649905673757917e-01,1.393470607831542030e-01
1.307364934376705756e-01,2.508581763853803270e-01
1.330052745267236158e-01,3.581451742086230738e-01
1.337075612645272638e-01,4.206191081140935317e-01
1.307991978049047599e-01,4.044548778971469027e-01
1.244349753263717939e-01,2.989945986608424366e-01
1.141835329593739318e-01,1.416086444967822877e-01
1.006095184078294180e-01,-2.023123379361634055e-02
8.591908155959407378e-02,-1.386653673336605552e-01
7.150775003072640246e-02,-1.889093663231419806e-01
5.613951841484836336e-02,-1.826118114670612358e-01
4.053378611281971411e-02,-1.434379477138282288e-01
2.399148711116664071e-02,-9.996793123564456929e-02
7.858688865923784891e-03,-7.019702842524479236e-02
-4.888996041644950129e-03,-5.840230432539555289e-02
-1.454398890331114018e-02,-5.822051776650402632e-02
-2.148848922737423700e-02,-6.134811139247291906e-02
-2.728194186237541119e-02,-6.339510439232101668e-02
-3.310501391991580583e-02,-6.338701977088448403e-02
-3.850027947242055243e-02,-6.277261602414221930e-02
-4.154396928266436417e-02,-6.347092957161951099e-02
-4.233279202362705967e-02,-6.423308053362439263e-02
-4.188475745862697830e-02,-6.254249493884625477e-02
-4.066883028994240645e-02,-5.916326377123407726e-02
-4.019904827987104412e-02,-5.416919259301951339e-02
-3.944324807186310594e-02,-4.930987443340942994e-02
-3.769601532967133128e-02,-4.652298811294718062e-02
-3.563788933125324604e-02,-4.445656649525447229e-02
-3.352408750766035228e-02,-4.318045655702063002e-02
-3.295383139750197171e-02,-4.264690408928802079e-02
-3.416628022936801096e-02,-4.190190474870464366e-02
-3.507698452564389502e-02,-3.991948030928718638e-02
-3.513118205089572899e-02,-3.614214299130236868e-02
-3.361891376940151499e-02,-3.070077492301021005e-02
-3.123331936144151805e-02,-2.488784321245097672e-02
-2.925660581184698003e-02,-2.156630169600701197e-02
-2.746896259681543689e-02,-2.053640353762075516e-02
-2.643862100276943641e-02,-2.006949910511158369e-02
-2.424813839364215601e-02,-1.908896023151585714e-02
-2.224973629914631795e-02,-1.593210980943116084e-02
-2.146236522891204271e-02,-1.075770863433834351e-02
-2.046732835742210571e-02,-4.543640880266257287e-03
-2.162861819355087895e-02,1.955154027580752098e-03
-2.292285730515674497e-02,8.244094045128838588e-03
-2.389924370334036569e-02,1.487398524827019362e-02
-2.650563823625586707e-02,2.180090194600799169e-02
-2.962099106169700097e-02,2.984115772329729716e-02
-3.304510848239304577e-02,3.915108548292114965e-02
-3.767060009128894715e-02,4.711097897937305268e-02
-4.154558539648425808e-02,5.282607973393359246e-02
-4.333417957002733828e-02,5.504205768862437120e-02
-4.462320436246995647e-02,5.422374212664902299e-02
-4.384479466497678835e-02,5.273337498333144358e-02
-4.219439497765882507e-02,5.187423258661059966e-02
-4.139628621123270236e-02,5.345868653817980459e-02
-4.077880389360542118e-02,5.720786419241552512e-02
-4.038944791280861535e-02,6.328303614308330993e-02
-3.950655087438344204e-02,7.042327543711174309e-02
-3.865041786428996540e-02,7.504448543189862209e-02
-3.792250468729674306e-02,7.558022242453821260e-02
-3.777917968642807711e-02,7.093806624789955606e-02
-3.929542601387443768e-02,6.230577781365372048e-02
-4.070055066319153148e-02,5.370295735232595569e-02
-4.219571906351331225e-02,4.588032978783080501e-02
-4.400171263563729118e-02,3.661428016367329619e-02
-4.520846362898418153e-02,2.420480272761795990e-02
-4.645110665761122137e-02,8.671221166465294464e-03
-4.778707330839029876e-02,-7.357863177516285602e-03
-4.942296425772167018e-02,-1.940644761684608144e-02
-5.003826228396893866e-02,-2.573362296696950560e-02
-4.978615585504279906e-02,-2.794924652552418370e-02
-4.787807691524683523e-02,-2.866731999207195250e-02
-4.365342960570332831e-02,-2.952323833819843479e-02
-4.002643895250322659e-02,-3.066009787707395934e-02
-3.729294035381956751e-02,-3.196646822852095005e-02
-3.720439099001763422e-02,-3.262607698905654885e-02
-3.999224506350774339e-02,-3.188883704171759786e-02
-4.329812632549932122e-02,-2.947596045802618192e-02
-4.663521438921884588e-02,-2.579541245989410564e-02
-4.771396107597934699e-02,-2.127286423911778357e-02
-4.710630556970454852e-02,-1.796525357442423781e-02
-4.628671189872776703e-02,-1.805290821373089008e-02
-4.635091566179374428e-02,-2.127334157969486966e-02
-4.863162348001853763e-02,-2.684454404325756910e-02
-5.153354871828382672e-02,-3.228692628882940535e-02
-5.353008465721081910e-02,-3.460358901399869513e-02
-5.241271585595996818e-02,-3.284512251975087865e-02
-4.661703684993479674e-02,-2.841027126781326545e-02
-3.616208754672924075e-02,-2.482669200658103870e-02
-2.340617985864662173e-02,-2.415936649794931529e-02
-9.418960805170423917e-03,-2.619935221579799967e-02
4.631843503268630834e-03,-2.868413038497356904e-02
1.639958196512204119e-02,-2.841156303649065851e-02
2.685835766063488644e-02,-2.562830101680069195e-02
3.452916101751851014e-02,-2.224737612970584255e-02
3.792809094623886268e-02,-1.863644546562617799e-02
3.760392846398794009e-02,-1.406044578994545061e-02
3.491449563745845780e-02,-8.580879025270667093e-03
3.072484765654813488e-02,-3.004481343976917081e-03
2.574963533551784950e-02,-7.221969478813142738e-04
1.885888225628660000e-02,-4.788722878850683665e-03
7.536708033141839569e-03,-1.219843370815798869e-02
-7.763121686976289654e-03,-1.967785566918569748e-02
-2.494583280831789984e-02,-2.510250107136194342e-02
-4.011985286249732108e-02,-2.807087206131154283e-02
-5.178115478462568672e-02,-2.991561211000660914e-02
-5.963062629357523264e-02,-3.191386232550974533e-02
-6.565259358890597474e-02,-3.336788668957314796e-02
-7.125689146624297754e-02,-3.178762432830667395e-02
-7.464263695549730460e-02,-2.744530574886180213e-02
-7.597369017292562865e-02,-2.082925351965141808e-02
-7.460442546151752063e-02,-1.435542247680224835e-02
-7.216143965072677191e-02,-1.186324181602384058e-02
-7.054743290170854830e-02,-1.482755740878361969e-02
-6.956779491715953112e-02,-2.135844534655935434e-02
-6.944009426884723002e-02,-2.547670600334666149e-02
-6.810211716676220495e-02,-2.365991448031423000e-02
-6.643431791463333402e-02,-1.705488396184772285e-02
-6.074617270390656604e-02,-9.843760267961580018e-03
-3.966181195813375804e-02,-8.449499554843399596e-03
6.697013834396745198e-03,-1.436541980742420468e-02
9.640410987716405145e-02,-2.338459893512045973e-02
2.285334649096782966e-01,-3.076948280905776947e-02
3.614061613438047660e-01,-3.199039461370305204e-02
4.485995159509584274e-01,-2.491007703373349091e-02
4.430124925847642170e-01,-1.100805743092951941e-02
3.360916464729896136e-01,6.712554247675408745e-03
1.808528644018451148e-01,2.429196121004989495e-02
4.038907633962428995e-02,3.773040006033125809e-02
-4.176780122759511660e-02,4.639675025747663772e-02
-6.364503634969664869e-02,5.005427942761924570e-02
-5.266080257323436237e-02,4.944958645585995072e-02
-4.011399259015253904e-02,4.661258517810487612e-02
-3.980372568510724685e-02,3.983395108727630363e-02
-4.580060624771401662e-02,3.064386669133268432e-02
-5.124123909610613092e-02,2.163067146167907753e-02
-5.280804615342306330e-02,1.227182303945555109e-02
-5.010289463528851128e-02,4.808773097949394816e-03
-4.689554161714500069e-02,-3.038231181390632293e-03
-4.554058989215476611e-02,-1.458930817849080075e-02
-4.456004868106331479e-02,-2.822391421237870762e-02
-4.329519576160257427e-02,-4.288048463399456167e-02
-4.001896374526794919e-02,-5.366759971639605692e-02
-3.470137361678388849e-02,-5.706972904347114989e-02
-3.018999171592486389e-02,-5.556058457185894528e-02
-2.685105847202536727e-02,-5.208275114961814778e-02
-2.566285707843072444e-02,-4.998171485750715903e-02
-2.588518724190288361e-02,-5.060075889880936290e-02
-2.544071235440124173e-02,-5.103330057156581223e-02
-2.538089160136137307e-02,-4.962368206279144101e-02
-2.438283100156095340e-02,-4.726584938567536531e-02
-2.294632564722959983e-02,-4.323022831332066357e-02
-2.044605318161204360e-02,-3.521360844501898735e-02
-1.513112884009591014e-02,-1.553410179836818561e-02
-8.155734616134911741e-03,3.043466104983218873e-02
6.221227934603769556e-04,1.130103626081005314e-01
1.040050636445742464e-02,2.282762804321297190e-01
1.916525172673048255e-02,3.493131532071696022e-01
2.718637428074379553e-02,4.337111985291544070e-01
3.431014853898422395e-02,4.371610488685945262e-01
4.029213223946597616e-02,3.465609437579084684e-01
4.586511624968983569e-02,1.926400864250122080e-01
5.107178072524526380e-02,2.180215791609844966e-02
5.660415347841112055e-02,-1.073436452447267403e-01
6.315554725655689317e-02,-1.693713760140107549e-01
7.086751245066369442e-02,-1.759912431383113263e-01
7.940479195504662746e-02,-1.469632959234503655e-01
8.750702375583896409e-02,-1.131036433027671761e-01
9.436308245255106697e-02,-8.843638419321796229e-02
1.002688760942020418e-01,-7.265919094988451676e-02
1.059852623038491509e-01,-6.277967398955949796e-02
1.126769273308871749e-01,-5.552742310529454328e-02
1.208988864522112794e-01,-5.078594050492827444e-02
1.307723347008460102e-01,-4.903422658340633039e-02
1.400888792173320407e-01,-5.009032187184823265e-02
1.474213014808568034e-01,-5.072761328343275422e-02
1.512651552731896776e-01,-4.866280996092098993e-02
1.498671647220234382e-01,-4.419414733209892782e-02
1.446789919098615540e-01,-3.694783500921448860e-02
1.361075220859895296e-01,-2.798534700804483633e-02
1.243715362868786645e-01,-2.036150668645313883e-02
1.106570683729108939e-01,-1.667409717076211856e-02
9.523502729300525882e-02,-1.921202225552786150e-02
7.780459816456092303e-02,-2.791964947947633835e-02
5.917778067131869435e-02,-3.757122781104577092e-02
4.015333265876908780e-02,-4.221981965917045998e-02
2.208538190123070927e-02,-4.171530298329360897e-02
5.834795265224580404e-03,-3.657664484457057164e-02
-8.252363944432416359e-03,-2.922401318096603737e-02
-2.001848233673365896e-02,-2.243616865100745913e-02
-3.038323468222550380e-02,-1.583957619572634937e-02
-3.828420940935973321e-02,-9.717744894124408575e-03
-4.274393073968418832e-02,-4.683578337104626205e-03
-4.526471684700043852e-02,-5.417952387712563194e-04
-4.529629119846920182e-02,4.924582001941894827e-03
-4.329125372948007533e-02,1.221835177463902189e-02
-4.133194697546120622e-02,1.992634235917963015e-02
-3.873903435289147157e-02,2.707441853847025043e-02
-3.680296255555579044e-02,3.214257559695038458e-02
-3.614773433199959529e-02,3.416927691900432246e-02
-3.510284586628800718e-02,3.484550738544620052e-02
-3.384849799562866801e-02,3.508764923984648842e-02
-3.271727160801631701e-02,3.407649619528786006e-02
-3.147363054606222565e-02,3.385579466774125273e-02
-3.139937310824893191e-02,3.667814742499476283e-02
-3.175038427177347827e-02,4.207898244494291673e-02
-3.183813543388946954e-02,5.006187731656040751e-02
-3.288844229426515775e-02,6.049395285604734773e-02
-3.433585601398177201e-02,7.147158437147872745e-02
-3.628285324154149200e-02,8.270470785485453669e-02
-3.818646611615721109e-02,9.276840382153166142e-02
-3.893205189042486108e-02,9.809590118259098324e-02
-3.827651238925302429e-02,9.610503717904442245e-02
-3.622730779066932194e-02,8.637644122142805470e-02
-3.341258775557870431e-02,7.219576068764492482e-02
-3.027239733393181226e-02,5.745571799856691309e-02
-2.781534324273765568e-02,4.556547780476085524e-02
-2.671982429329294167e-02,3.840713237004362429e-02
-2.698919819470917136e-02,3.505715330531596063e-02
-2.760294637126658665e-02,3.359003829471991776e-02
-2.832374957538578986e-02,3.134794744993758819e-02
-2.931169381134773877e-02,2.620448148723998963e-02
-3.064983445257286193e-02,1.655361544659837356e-02
-3.366423636514570550e-02,3.039370907397867787e-03
-3.707552013840832716e-02,-1.157391575890102248e-02
-4.055070719789634348e-02,-2.563360926478130269e-02
-4.342987209340522237e-02,-3.568768419767016919e-02
-4.432458672916971681e-02,-4.047402019820883073e-02
-4.464891427748930025e-02,-4.089537510049361807e-02
-4.381877301148447146e-02,-3.719533486060754013e-02
-4.312059930922899909e-02,-3.213146440946428734e-02
-4.325077379384024978e-02,-2.855245619152087938e-02
-4.236659049331472499e-02,-2.803117894117986703e-02
-4.216893708520292466e-02,-3.025551693713050133e-02
-4.156406541063802085e-02,-3.195638039475468678e-02
-4.071556592353031689e-02,-3.031703817283974006e-02
-4.179317790079211531e-02,-2.581559791140294879e-02
-4.326280945280359252e-02,-2.166543125066715259e-02
-4.520884596234694963e-02,-2.224936887927912027e-02
-4.786760879077429226e-02,-2.922978944681101088e-02
-4.944990110189773080e-02,-3.870103214753772142e-02
-4.921994940775992200e-02,-4.520818803978536582e-02
-4.833270676510807717e-02,-4.648950415995659058e-02
-4.637218123534659481e-02,-4.242295109991568031e-02
-4.561681245757286812e-02,-3.562465755006367918e-02
-4.695172428674580789e-02,-2.946603164220206600e-02
-4.789731133939640478e-02,-2.523864395980179517e-02
-4.907311753191040404e-02,-2.281880509875171270e-02
-4.853237540633079106e-02,-2.170171735535688165e-02
-4.655157423417344287e-02,-2.110958432695789894e-02
-4.508176074366705699e-02,-2.038097661457317217e-02
-4.462512904768235061e-02,-1.836133098085154444e-02
-4.521655239431945916e-02,-1.440045475690227700e-02
-4.637204824808575931e-02,-8.542782206503205661e-03
-4.806546788966502282e-02,-1.022152870100428903e-03
-4.868889716716097438e-02,5.052978908600516510e-03
-4.861833558850801873e-02,7.499902367267191616e-03
-4.935949517465582775e-02,6.261669569165440562e-03
-5.015999681248579228e-02,1.023614179446102456e-03
-5.130240472889394110e-02,-6.195417787850503524e-03
-5.454674424705759084e-02,-1.279985262245397423e-02
-5.662551330499059066e-02,-1.916918026649773107e-02
-5.824348500295899178e-02,-2.412759878238302652e-02
-5.922914451255353874e-02,-2.737691097677198704e-02
-5.653614859051211972e-02,-3.096728673274103810e-02
-5.301519988087801533e-02,-3.314496195107859144e-02
-4.702053368640599085e-02,-3.428866033694815546e-02
-3.839175129167542860e-02,-3.465026833120760097e-02
-2.721817268428440226e-02,-3.287649670095817156e-02
-1.290893823284295500e-02,-3.103343386247429947e-02
4.239653604803006633e-03,-2.936985895649766448e-02
2.134236336330724154e-02,-2.741536544126081665e-02
3.431308867497937648e-02,-2.529372504854392190e-02
4.311409465082158970e-02,-2.181721833221997309e-02
4.512784631397877277e-02,-1.494324943709109989e-02
4.254623984338766485e-02,-4.788950412893136499e-03
3.840336680355001253e-02,7.437233076713202322e-03
3.148637239386158082e-02,1.949845003721704245e-02
2.096429271839468991e-02,2.807738947993929784e-02
6.998022387858657961e-03,3.373975630071733567e-02
-1.003255829394352448e-02,3.807008407048645404e-02
-2.826748928715501832e-02,4.103726024320839688e-02
-4.325075437473011042e-02,4.303571647973492009e-02
-5.437182649926167871e-02,4.169235766345441574e-02
-6.188213767256370984e-02,3.497591171031776830e-02
-6.511285673454736411e-02,2.466138132024775498e-02
-6.650191129414768920e-02,1.183356868334037998e-02
-6.768475933567516534e-02,-1.355926756641457525e-03
-6.817439855474879962e-02,-1.268080755716320326e-02
-6.936071857057522771e-02,-2.244782388760220571e-02
-6.937970663946121941e-02,-3.168235836639614333e-02
-6.736024610520502387e-02,-4.097935472168782317e-02
-6.544528567442811640e-02,-5.032268087029186793e-02
-6.342422246541620789e-02,-5.743973108664326976e-02
-6.345186344847142390e-02,-5.876926417018217552e-02
-6.408912235031810622e-02,-5.502578302433443203e-02
-6.220649430108123046e-02,-4.940001668860250633e-02
-5.020923420677294441e-02,-4.542673006339184583e-02
-1.796948932347474520e-02,-4.603476273463581736e-02
4.471762394144532249e-02,-4.929605589241858182e-02
1.493715940726135227e-01,-5.123297546252792573e-02
2.741029728921771103e-01,-4.869335301441247987e-02
3.765870352065517346e-01,-4.011589423877734428e-02
4.123074705302619547e-01,-2.432722360833323993e-02
3.491298438176406171e-01,5.720016525537913177e-03
2.128417987221994379e-01,6.144107635197870732e-02
6.275761119698208823e-02,1.490868331122679191e-01
-4.484696668870934155e-02,2.607860831062662754e-01
-8.689334812032246946e-02,3.661219969326818813e-01
-8.048833002884502041e-02,4.231346372333944506e-01
-5.531135699494792168e-02,3.966780081834341276e-01
-3.713674603676579006e-02,2.874944500566380956e-01
-3.184976596367820878e-02,1.295740795990186767e-01
-3.297984959487806206e-02,-2.836468240089096843e-02
-3.577802619962072023e-02,-1.345279879514415244e-01
-3.842860494002946214e-02,-1.761054162355978336e-01
-3.876483617700244438e-02,-1.646610169190366735e-01
-3.729088299649011007e-02,-1.234863292520691769e-01
-3.659571801899522137e-02,-8.372379516620545581e-02
-3.479956567886950680e-02,-5.830220123791647613e-02
-3.216690050336620810e-02,-4.878194564958796692e-02
-2.918212131142502996e-02,-5.024526482274044997e-02
-2.460827796324717084e-02,-5.530412777749571518e-02
-2.061213392531439925e-02,-5.909078209080032007e-02
-1.765580426170932152e-02,-6.147089853401855458e-02
-1.476678175690951042e-02,-6.581588580391842247e-02
-1.340363514864693732e-02,-7.096279633328604619e-02
-1.238055393576907928e-02,-7.295063838037973980e-02
-1.111843430872749491e-02,-7.024080406356533746e-02
-1.167375677826271857e-02,-6.183863973797391889e-02
-9.706172347191092606e-03,-5.054508325312180583e-02
-5.467507110378294101e-03,-4.130862742266013660e-02
-7.525217322776225730e-05,-3.467833344633970694e-02
8.351849800793077414e-03,-2.960847202828778210e-02
1.544739566822860878e-02,-2.551427042967281331e-02
2.061442956571883992e-02,-2.337539894332456639e-02
2.591584016114584568e-02,-2.415846084232813745e-02
3.050228456108528344e-02,-2.677180151953659562e-02
3.551006360768814429e-02,-2.969613672231447010e-02
4.158824503315584897e-02,-3.052981012839110081e-02
4.644110375693994569e-02,-2.897130549959592294e-02
5.016080611058121308e-02,-2.691990772313049285e-02
5.423229018829486825e-02,-2.479877679412626976e-02
5.953235436066164898e-02,-2.144747642374920937e-02
6.686135956667967062e-02,-1.669434954904878976e-02
7.570155343684709104e-02,-1.079328351464166162e-02
8.372420429515468887e-02,-4.398469907970796108e-03
8.991923731719651813e-02,3.279377395281515405e-04
9.364404043467124128e-02,4.047963688828709258e-03
9.705083417533783008e-02,9.694577320809961291e-03
1.022668871251571215e-01,1.836705191653643238e-02
1.090101321819520463e-01,2.970505030447709305e-02
1.179331436892875340e-01,4.272741249464721142e-02
1.266972579200212612e-01,5.331617582570814806e-02
1.327406252289052291e-01,5.974362654786920246e-02
1.356968352092785546e-01,6.271162788616425898e-02
1.352288267255946641e-01,6.216744489296513465e-02
1.314142371642266494e-01,6.017784876497472846e-02
1.256677912380735063e-01,5.797286606104357087e-02
1.170324788251858317e-01,5.724858739571424965e-02
1.055171582338251812e-01,5.899179213414864481e-02
9.089638535620139792e-02,6.272381809891994231e-02
7.327936997644926564e-02,6.705098527552656729e-02
5.538486704074346151e-02,6.971277710454948373e-02
3.798576288319101268e-02,7.078235979512075005e-02
2.265682005451418249e-02,7.069515255260515330e-02
9.262223284843693755e-03,6.943745061613905423e-02
-2.539586535066238639e-03,6.524025400704580591e-02
-1.194533659983525349e-02,5.620304347130511413e-02
-1.834727009813979376e-02,4.270497002191592228e-02
-2.181138644155579051e-02,2.667072964786944278e-02
-2.371166949106161964e-02,1.213043609271030956e-02
-2.587909734676854812e-02,2.420597529635330411e-03
-3.008921010405898877e-02,-1.933473968170261849e-03
-3.545093439267882340e-02,-3.766724331555818331e-03
-3.979871263383960578e-02,-5.753083882264310202e-03
-4.241040478925089258e-02,-1.144779091255421211e-02
-4.218805780919879234e-02,-2.176965101282896803e-02
-3.936265265639696947e-02,-3.215936557044231370e-02
-3.682175443279563087e-02,-3.988243643573369246e-02
-3.423949286662250624e-02,-4.305566674487926182e-02
-3.191498617188406883e-02,-4.147496689289856264e-02
-3.122701312616018438e-02,-3.812097582151725839e-02
-3.060644692084804955e-02,-3.465109363220585104e-02
-3.059456533370913389e-02,-3.100130527410595999e-02
-3.102642777405420146e-02,-2.859925609747843156e-02
-2.937282034675353648e-02,-2.769496053942357983e-02
-2.704819661044887552e-02,-2.879521520717625432e-02
-2.349851189419118608e-02,-3.175245408734039126e-02
-1.996286370679251077e-02,-3.275899772789177267e-02
-1.920435504222448020e-02,-3.022818510398952302e-02
-1.923135500745812992e-02,-2.425795315748444092e-02
-2.111724022947136098e-02,-1.718585785421853848e-02
-2.331042653367984552e-02,-1.333352569794106317e-02
-2.480842429002656085e-02,-1.517130887136318614e-02
-2.603896888249983277e-02,-2.078745093736919861e-02
-2.617779342167021045e-02,-2.659670623111858034e-02
-2.641009054185544311e-02,-3.137015531813851232e-02
-2.677987743049964689e-02,-3.307669524583481402e-02
-2.765876045348810569e-02,-3.210441469073339882e-02
-2.872912456779035117e-02,-3.060661461091675195e-02
-2.964533951819863303e-02,-2.736233489995867213e-02
-2.999709729290957194e-02,-2.219872754574150897e-02
-3.016252716446528315e-02,-1.726202832151341182e-02
-3.101010444216933948e-02,-1.249622454179315917e-02
-3.309405632698615013e-02,-8.691965229738515819e-03
-3.633882921791982412e-02,-7.440295228726192048e-03
-3.924580913727705039e-02,-7.985722623785780627e-03
-4.223354381178114764e-02,-1.043320777855809983e-02
-4.376013655065720542e-02,-1.508967211692358208e-02
-4.335781693295513023e-02,-1.986319067261974047e-02
-4.262682531355646565e-02,-2.322686132272546236e-02
-4.126629907538734154e-02,-2.553446729869322113e-02
-3.994534537786190165e-02,-2.734605199824079180e-02
-3.989170243893895573e-02,-3.045849469581526567e-02
-4.165134799215199773e-02,-3.578932482775590285e-02
-4.298160319688508479e-02,-4.072645603379129037e-02
-4.419671297371197821e-02,-4.217513823854427552e-02
-4.536313045442249420e-02,-3.974013274173218008e-02
-4.450474482880075605e-02,-3.395858401570053808e-02
-4.327644560684815178e-02,-2.636803568842032916e-02
-4.235840940635489382e-02,-1.932690019656758615e-02
-4.153915847538518918e-02,-1.203929384024998717e-02
-4.157031696597741910e-02,-5.143576097894043096e-03
-4.242999413394440977e-02,-1.537133711831602766e-03
-4.194824454478166681e-02,-1.286152697448106688e-03
-4.122972805035297894e-02,-4.496189877575631350e-03
-4.007714841408197698e-02,-8.416999880738419357e-03
-3.809270347364290821e-02,-8.660516074575127371e-03
-3.686883011253769965e-02,-4.614471510354106396e-03
-3.201237621823126850e-02,3.714025002433423393e-03
-2.410978958251934479e-02,1.523795796001845525e-02
-1.386432346115249598e-02,2.819960515348883187e-02
-7.560349318973489394e-04,4.141495009748695499e-02
1.163254743915480630e-02,5.194531950679298626e-02
2.193320877293351151e-02,5.839396725507800534e-02
2.872041812947605244e-02,6.024111392335722986e-02
3.169119256624929049e-02,5.586677075072937065e-02
3.118320023463095822e-02,4.630351320439227147e-02
2.799876177539510624e-02,3.190601697536618597e-02
2.364137644617280570e-02,1.400747927195289053e-02
1.707348055927506575e-02,-3.064430474636811990e-03
6.499756938315422519e-03,-1.769040710158581789e-02
-6.725118879485700828e-03,-2.925975923621979696e-02
-2.107991011304570853e-02,-3.910819803001375911e-02
-3.519091862033250917e-02,-4.797870338250125738e-02
-4.559410269276827077e-02,-5.468151531671852639e-02
-5.211731962458955592e-02,-5.940331621078423496e-02
-5.659111700379866605e-02,-6.102849104021688953e-02
-5.904553863990182755e-02,-6.084725164164905137e-02
-6.069834831735314296e-02,-6.061940654743627754e-02
-6.240048934837361810e-02,-5.920120681719137634e-02
-6.414361424947667700e-02,-5.719951633161806520e-02
-6.617754333033171177e-02,-5.396738029194204228e-02
-6.808777838984986230e-02,-4.764450279050826131e-02
-6.960523539954988070e-02,-3.902915346400528257e-02
-6.963795446548548540e-02,-2.581599851971400073e-02
-6.879491870887075033e-02,-3.346049625048133289e-04
-6.766421094175566198e-02,4.869032766384094602e-02
-6.700531754646150973e-02,1.303208273786393701e-01
-6.389958794765832062e-02,2.414659300189107571e-01
-4.938536787132236788e-02,3.510722749911678875e-01
-1.484998677692678758e-02,4.174437261609687533e-01
5.338183393373834018e-02,4.046096706341798521e-01
1.607069582652823625e-01,3.018778294768514336e-01
2.795821149164318120e-01,1.466182802214415493e-01
3.678782202037928495e-01,-1.369560963031754910e-02
3.833132664206605478e-01,-1.311529692636640709e-01
3.043988431264376127e-01,-1.818951094615805508e-01
1.652322643840908878e-01,-1.788975968879153999e-01
2.736655471807581536e-02,-1.435411546079217449e-01
-6.072969898150094165e-02,-1.035994572975163786e-01
-8.869505527474480511e-02,-7.440707931951184850e-02
-7.572440618143236324e-02,-5.824348127185076385e-02
-5.312414650360108848e-02,-5.278847605472108961e-02
-4.287579926465451274e-02,-5.182009034284587590e-02
-4.100739119911749053e-02,-5.351280340880152503e-02
-4.273855065163577327e-02,-5.664225333004578589e-02
-4.459377744500520740e-02,-5.913605446652719227e-02
-4.357195784885950496e-02,-5.871287981711577342e-02
-4.143204879028773713e-02,-5.354806002029978418e-02
-3.807350748807120100e-02,-4.566525284459856115e-02
-3.402458424255443148e-02,-3.877492747956950286e-02
-3.005460120286914880e-02,-3.513696620158918149e-02
-2.679146897131025329e-02,-3.415021384825379924e-02
-2.552376078679627347e-02,-3.250979034782421062e-02
-2.572358633188709040e-02,-2.697640541391217728e-02
-2.668947774021580149e-02,-1.890458533612209002e-02
-2.724671724008990992e-02,-1.213031770668102950e-02
-2.656897772855145584e-02,-1.004506321202570940e-02
-2.549801734619689536e-02,-1.370362018729058204e-02
-2.420964496837665209e-02,-1.920424918416169940e-02
-2.290289228987137105e-02,-2.202047221625849649e-02
-2.120427621328741657e-02,-2.055839683503998816e-02
-1.750772927581106808e-02,-1.636229528547159667e-02
-1.143517336523708003e-02,-1.278255509290446637e-02
-3.729645717366852301e-03,-1.118881289240750143e-02
5.635378735334833737e-03,-9.632074044692521403e-03
1.557617999241374049e-02,-6.579013631382978761e-03
2.495019059482245921e-02,-1.468018357842390022e-03
3.386313991103645504e-02,4.575032666026256425e-03
4.146081762847998731e-02,9.286936394138675666e-03
4.684548320327283633e-02,1.295324289479810390e-02
5.080358865881409725e-02,1.588750859253301381e-02
5.448899958085577644e-02,1.911132413157462864e-02
5.857605655075304174e-02,2.453252535453005756e-02
6.509422133741107896e-02,3.306067717956571311e-02
7.344853816966186166e-02,4.434939762046522654e-02
8.150952151634101306e-02,5.743795139980968634e-02
8.840853293187278528e-02,6.910214916236215310e-02
9.378225117570510028e-02,7.580802861623946176e-02
9.921139543556056761e-02,7.855364272187068120e-02
1.063012911059494914e-01,7.727088558959227527e-02
1.152140438389587518e-01,7.304876715033011003e-02
1.240577814901679954e-01,6.955024770499718123e-02
1.315614697575625547e-01,6.650615406470858360e-02
1.361967463730213712e-01,6.367770290656996068e-02
1.390755768454878805e-01,6.324717523645048689e-02
1.413401157718001122e-01,6.359232218438395923e-02
1.420404447937416437e-01,6.226721708232298147e-02
1.411486878636090403e-01,5.894114047032042447e-02
1.358724235482432485e-01,5.161988595099432919e-02
1.254518638366895478e-01,4.027305802766363574e-02
1.104359954065231436e-01,2.766809257483035175e-02
9.213363328023556342e-02,1.626520625994622507e-02
7.185062851860608835e-02,7.646287103443180980e-03
5.126266629479216130e-02,2.471267536565118807e-03
3.080844985525827209e-02,-5.093780610243807535e-04
1.110717763819894267e-02,-3.508416994010997523e-03
-5.199744797561443171e-03,-8.705247114393362129e-03
-1.809152471522005104e-02,-1.633362999380512728e-02
-2.726326125279806417e-02,-2.359280333330072282e-02
-3.286640522729594727e-02,-2.914195585999198798e-02
-3.749040073464254830e-02,-3.170484428433976293e-02
-4.250248346992666765e-02,-3.145730194808701863e-02
-4.709436238553581233e-02,-3.111433873922915538e-02
-5.123002640342445846e-02,-3.096104707851566121e-02
-5.352876829142533266e-02,-3.036030873170295769e-02
-5.262341937024143934e-02,-2.913302515575057205e-02
-4.942328225991236834e-02,-2.722412625142759182e-02
-4.515936874260684936e-02,-2.509095691908084375e-02
-4.163174680304058961e-02,-2.485732824775212235e-02
-4.047481209318418843e-02,-2.673240056017429922e-02
-4.155254718678572101e-02,-2.866549827333316272e-02
-4.380906656329992127e-02,-2.988470639701216319e-02
-4.540261696929538682e-02,-2.999815431570574883e-02
-4.531427169570316493e-02,-2.878622378844433727e-02
-4.367863194812093841e-02,-2.749644045122871805e-02
-4.143385547659064055e-02,-2.582665647425411160e-02
-3.929585337714792959e-02,-2.075520833940159779e-02
-3.767434202785370501e-02,-1.272382042864908351e-02
-3.724382668001990915e-02,-3.417650568042825826e-03
-3.745299730974124830e-02,4.660892711575847537e-03
-3.811830306434234317e-02,8.415562901016037517e-03
-3.854766442379863045e-02,7.626303230632845362e-03
-3.769003732482473917e-02,2.529799715501814157e-03
-3.494153894558930246e-02,-5.469462615322277094e-03
-2.998506279402397487e-02,-1.473881904074654525e-02
-2.417415655952620535e-02,-2.428438894973784096e-02
-1.885377044222265319e-02,-3.253526627117214742e-02
-1.654135635420704575e-02,-3.800545797844238904e-02
-1.805633842304898984e-02,-4.094098392757783422e-02
-2.147464489507706215e-02,-4.173193989030198059e-02
-2.529525320278406750e-02,-3.869701154846534596e-02
-2.745519952313154807e-02,-3.217074987843242945e-02
-2.820159058897057924e-02,-2.407994260671294032e-02
-2.947195124990338241e-02,-1.485060849003405105e-02
-3.171369650563990450e-02,-7.091222873606204194e-03
-3.478675519375097613e-02,-2.764368730283531250e-03
-3.837317951425715801e-02,3.533072258390876352e-04
-4.121143706822553987e-02,5.438269963112300764e-03
-4.282778985445277742e-02,1.354403072346277437e-02
-4.378201092462336713e-02,2.183167855466826637e-02
-4.417243232331609371e-02,2.567648977121729167e-02
-4.362606283196365092e-02,2.013124132475247255e-02
-4.300298984010074432e-02,5.391546151147751965e-03
-4.146700228929051102e-02,-1.024125645242495233e-02
-3.933502200131358539e-02,-2.005946820047888740e-02
-3.891836012973561715e-02,-2.414026177039393581e-02
-4.074378306003106909e-02,-2.510717961915386390e-02
-4.530490280656269964e-02,-2.688580653761519709e-02
-5.021477176840856427e-02,-3.082496789561287032e-02
-5.310259943071343053e-02,-3.302216013519254645e-02
-5.334043741424712021e-02,-3.075489407577926271e-02
-5.080768041669603968e-02,-2.481463347131829950e-02
-4.791001202790790003e-02,-1.624145182818267918e-02
-4.583140142708255760e-02,-6.912763267655302156e-03
-4.424470876694813759e-02,2.047637176178867657e-03
-4.427367217457166271e-02,1.083144714265404929e-02
-4.571250275707620936e-02,1.950629328805600707e-02
-4.698670218924463904e-02,2.939187599751554719e-02
-4.816416384867428652e-02,4.028265327142775687e-02
-4.865962886868172022e-02,5.222901393395029679e-02
-4.766875376035106110e-02,6.519971109880898230e-02
-4.754761338447089508e-02,7.592556590176632869e-02
-4.853787591162199433e-02,8.258513485026264256e-02
-4.957317581713115151e-02,8.241888766438354441e-02
-5.120231432398116012e-02,7.123275331479560213e-02
-5.182860709403833144e-02,5.028552486935931876e-02
-5.108736109404560938e-02,2.343952735088592615e-02
-4.986983861108121308e-02,-4.312953629991775339e-03
-4.723018480251664486e-02,-2.707576629899899334e-02
-4.497271099884718459e-02,-4.256771290941193525e-02
-4.343775664646285645e-02,-5.156569966949646477e-02
-4.232150136695740639e-02,-5.624482496197041881e-02
-4.304152338018823326e-02,-5.834459794938950949e-02
-4.275140779945396652e-02,-5.919222093586322397e-02
-4.037643745567597031e-02,-5.898357338814823325e-02
-3.595016391402937328e-02,-5.641082889389235216e-02
-2.866191744101136835e-02,-5.231320514725246174e-02
-1.976108364677689813e-02,-4.827685675565282497e-02
-8.696889981650340190e-03,-4.555377673406194733e-02
5.173635655356331048e-03,-4.559383316946878650e-02
2.059982325295857744e-02,-4.782255877130486832e-02
3.489939460277225597e-02,-4.970124943249989297e-02
4.437889394131531995e-02,-4.835801858485080928e-02
4.613429068691068946e-02,-4.107637662459802386e-02
4.150509152953225228e-02,-1.871559858276172772e-02
3.430822583221546790e-02,3.176039934195695746e-02
2.582578599545772707e-02,1.164307057296568443e-01
1.671680306093729917e-02,2.310908664384374034e-01
5.557672385177174490e-03,3.436126353002577627e-01
-8.700632586936873913e-03,4.114396369680929366e-01
-2.493630556738395468e-02,3.996381759011455315e-01
-4.045891756680709134e-02,2.985752777386380674e-01
-5.225870214687779181e-02,1.444321936738217627e-01
-6.100151022813055102e-02,-1.621651183190288281e-02
-6.677124046754162601e-02,-1.345756814798458878e-01
-6.998308609978329264e-02,-1.853249728389328721e-01
-7.195165249192141121e-02,-1.796474572740673348e-01
-7.227187569483894958e-02,-1.399889528505086633e-01
-7.147743419610805282e-02,-9.478703047591255371e-02
-7.076410200974739273e-02,-6.294137757006040834e-02
-7.047789766911319309e-02,-4.919282605403604153e-02
-7.038412311089367601e-02,-4.864693959638439341e-02
-6.974103364890965606e-02,-5.463734484426652910e-02
-6.906333389998073335e-02,-6.189475371803612735e-02
-6.981124039612014720e-02,-6.737362068494776035e-02
-7.089357995371872723e-02,-7.088249984666648851e-02
-6.639270197014160435e-02,-7.158413801837842927e-02
-4.353061007978194230e-02,-6.904916226676852120e-02
1.130656270674492390e-02,-6.335980593287418583e-02
1.135155979336150145e-01,-5.546173378274308480e-02
2.531161990411618934e-01,-4.685439660334211887e-02
3.832906151124233496e-01,-3.910845301720769496e-02
4.568267540063507548e-01,-3.092705463926068848e-02
4.307197926610996652e-01,-2.344190839200157445e-02
3.090938455670987350e-01,-1.868045787736931015e-02
1.531636325221097938e-01,-1.725156673509225039e-02
2.229296986255011048e-02,-2.113858307714767612e-02
-4.946138850241298124e-02,-2.623465337871104183e-02
-6.582871895593048195e-02,-2.870736983816700796e-02
-5.610930971673110806e-02,-2.694027814357977807e-02
-4.644693375720528039e-02,-2.211398922745454534e-02
-4.442628774701571498e-02,-1.802784052366038572e-02
-4.639957092074359357e-02,-1.415643540751623103e-02
-4.857430991706579437e-02,-9.920024318666918750e-03
-4.863549203561630396e-02,-4.107691874421690557e-03
-4.773437156756202976e-02,2.579508075286791879e-03
-4.575923115597592405e-02,6.951824922171076157e-03
-4.362064841867738241e-02,9.015728616866350298e-03
-4.166340587855935085e-02,9.383998160293852142e-03
-3.914136042428474627e-02,1.088574942862813484e-02
-3.719380905569479034e-02,1.500413098215608310e-02
-3.532314147810770161e-02,2.103583392049025377e-02
-3.491585341977533619e-02,2.918605514500336590e-02
-3.417776403549135922e-02,3.791061278555205027e-02
-3.214033528312260080e-02,4.583072471841258266e-02
-3.055994684026839062e-02,5.236464226487157897e-02
-2.761460005072150642e-02,5.689282092831776660e-02
-2.465887163679041094e-02,5.966783091316701232e-02
-2.152768132146574628e-02,6.262867055844863196e-02
-1.670789299045770393e-02,6.562483926048395810e-02
-1.180731013871452566e-02,6.862760920004103149e-02
-7.383030587335888753e-03,7.143148858499520637e-02
-3.063489186081048109e-03,7.148934401128101412e-02
4.254313801073226651e-04,6.889885983090410226e-02
5.293895514438270479e-03,6.342172864194041415e-02
1.120003582872100903e-02,5.597875955421276195e-02
1.711627147414170394e-02,4.898080466631059282e-02
2.466226663534786673e-02,4.304370985748150191e-02
3.139024590830186145e-02,3.860379079105207001e-02
3.883063890385447803e-02,3.431040125787075679e-02
4.712836648705930054e-02,2.950232943124620616e-02
5.484544750298536719e-02,2.447964741390977125e-02
6.319401150390668853e-02,1.845371029031915577e-02
7.150894987085781862e-02,1.106963204401341556e-02
7.934142232660347516e-02,2.227819312802506359e-03
8.768778423439903269e-02,-8.601121720592463937e-03
9.704529972204198329e-02,-1.992888922342108543e-02
1.069831630898149255e-01,-2.879505718879197748e-02
1.179428047089273179e-01,-3.497565530624527352e-02
1.285102075408672551e-01,-3.855525159719965650e-02
1.372277742741307427e-01,-3.989749902350982202e-02
1.435104405530199245e-01,-3.981632381358621992e-02
1.475551556567937517e-01,-3.789869043328935455e-02
1.500071666914317148e-01,-3.461836198426518352e-02
1.513680363026608244e-01,-3.143136874522067803e-02
1.520790468402074547e-01,-2.974564454112255812e-02
1.503815948128196522e-01,-2.911265607076707340e-02
1.455330957942289616e-01,-2.865040891399802531e-02
1.373372932561044146e-01,-2.712882889037293230e-02
1.248582613948824860e-01,-2.551362073149363724e-02
1.096562234374365841e-01,-2.622213998496144075e-02
9.294864503111466281e-02,-2.809394530321096192e-02
7.469253982038524808e-02,-3.133150253304037985e-02
5.598767808680676916e-02,-3.448570804935933987e-02
3.725103177669668308e-02,-3.666813983167277469e-02
1.904009534055595490e-02,-3.964302483075959199e-02
3.213281789922787027e-03,-4.186834431084725944e-02
-9.107404012520210063e-03,-4.074247552449994370e-02
-1.819154339009471794e-02,-3.489084206820261547e-02
-2.468650738874346787e-02,-2.627903563144093693e-02
-2.934930820783303307e-02,-1.788641175273935138e-02
-3.249419409510981294e-02,-1.272429049923871555e-02
-3.298137280869564703e-02,-1.199021526461773249e-02
-3.188378483654793344e-02,-1.305289616255571675e-02
-3.088873570642152941e-02,-1.472690597880019908e-02
-3.067096986181497981e-02,-1.796713657852788346e-02
-3.309537293175796729e-02,-2.186188262777904665e-02
-3.675978522350501626e-02,-2.406902646677017144e-02
-3.912462661335926878e-02,-2.314699648159018047e-02
-4.038640134593414477e-02,-1.913281464771006066e-02
-3.928119927223922003e-02,-1.334481726414314673e-02
-3.741647949320225930e-02,-9.139551373401149509e-03
-3.559387189880311442e-02,-8.529980062620156830e-03
-3.416819072238495847e-02,-1.102802618724577598e-02
-3.380523752760154765e-02,-1.745063431579531657e-02
-3.222073435847198908e-02,-2.709452886320304343e-02
-3.082163429857904396e-02,-3.716050798672417693e-02
-2.877982459520125533e-02,-4.351293640942113794e-02
-2.657161915488953641e-02,-4.386260112753299911e-02
-2.537801877402176554e-02,-3.987149053407285093e-02
-2.471554618196629416e-02,-3.568050068893827143e-02
-2.439056385741103158e-02,-3.537855811467902067e-02
-2.341244931295077478e-02,-3.754477583244820310e-02
-2.244438563208841705e-02,-3.857138380692980151e-02
-2.128087692275872078e-02,-3.553370383053164328e-02
-2.009530394322694632e-02,-2.792024812040451442e-02
-2.013922533912808691e-02,-1.890343520450592230e-02
-2.161640920060958759e-02,-1.234962960485647826e-02
-2.360338144991743631e-02,-8.805500380313361491e-03
-2.661544089453837802e-02,-8.293554068023749684e-03
-2.940033877145442620e-02,-1.124694431102334080e-02
-2.960897139705872746e-02,-1.551087085063673592e-02
-2.882577357586334210e-02,-2.022521264319988160e-02
-2.718573458246448596e-02,-2.428400500798141501e-02
-2.536854071364143953e-02,-2.390637350543754064e-02
-2.614792793005590518e-02,-1.804236631767153209e-02
-2.768757061144685311e-02,-7.252782846272278101e-03
-2.967924954454345676e-02,8.152485941273754366e-03
-3.242584971654363657e-02,2.406595709030107111e-02
-3.345869516836313257e-02,3.917329725618427794e-02
-3.403734941203770403e-02,5.233987370227728697e-02
-3.421320005272589920e-02,6.220402319802956215e-02
-3.378786659572341478e-02,6.946685202313883367e-02
-3.500269122515468900e-02,7.097390394768224309e-02
-3.711914215319403465e-02,6.391003439903454597e-02
-3.973200831904932784e-02,4.749737316677299370e-02
-4.198649609987480102e-02,2.399189344511640926e-02
-4.230736318249633116e-02,1.909472165999674675e-04
-4.214198097333180654e-02,-1.917671436896288203e-02
-4.230146684004751356e-02,-3.215225007835146448e-02
-4.273888235690241622e-02,-3.947692601096004783e-02
-4.421450203083444885e-02,-4.611493132332088879e-02
-4.651112024232829933e-02,-5.270904115592148914e-02
-4.788426512142487934e-02,-5.860999064422732496e-02
-4.928488480998845928e-02,-6.395673761312146988e-02
-5.032896515859221209e-02,-6.576778156182004620e-02
-4.848522783414725701e-02,-6.373568021651265791e-02
-4.548199013079302910e-02,-5.869040036508868519e-02
-4.130205858500225063e-02,-5.124436983792949457e-02
-3.698912406714421897e-02,-4.345753892441310551e-02
-3.585079906718845882e-02,-3.655673145868120616e-02
-3.680282957063400751e-02,-3.044702211702773886e-02
-3.860759258444228931e-02,-2.265464347343326343e-02
-3.988432418420896630e-02,-8.053434326325492609e-03
-3.872609198019900945e-02,2.479225245436388753e-02
-3.657947692393903605e-02,8.967596512748865489e-02
-3.472810539103028671e-02,1.899272842154956786e-01
-3.408705374098623675e-02,3.106912046360524315e-01
-3.525295046551760181e-02,4.138841743173541365e-01
-3.701939964995248911e-02,4.533092955230449972e-01
-3.893934008798142360e-02,3.990379870718708810e-01
-4.074037520888293407e-02,2.640689772308748018e-01
-4.232729296132795027e-02,9.155359302423793366e-02
-4.400875969984580083e-02,-6.402569341832885230e-02
-4.557063332388172627e-02,-1.569816983270501121e-01
-4.596616217812914129e-02,-1.859607407440082572e-01
-4.482299312095726351e-02,-1.667943050167317309e-01
-4.052536771507243146e-02,-1.261410747861378967e-01
-3.244232025307679235e-02,-9.022835882091478910e-02
-2.112314415686776178e-02,-6.589566937565971561e-02
-7.039806015725052352e-03,-5.422686161915474257e-02
6.702811411143133787e-03,-5.104450285130305437e-02
1.909160208136907386e-02,-5.156468075450804101e-02
2.937034299389778419e-02,-5.249842106387549862e-02
3.673424109495948553e-02,-5.347524686983708142e-02
4.215578473234632417e-02,-5.294228289589592018e-02
4.389776269294880240e-02,-4.870165565664064111e-02
4.151266652002818386e-02,-4.123827545430905350e-02
3.685045846502083000e-02,-3.211836370796543327e-02
2.863418248996064952e-02,-2.416596180701460067e-02
1.669075375486946122e-02,-2.058289959959858778e-02
2.017167916116692754e-03,-2.162003420384750463e-02
-1.582271919449733388e-02,-2.461432229436455107e-02
-3.326327821544337870e-02,-2.827967369617886279e-02
-4.538464768722189069e-02,-3.206803962872461361e-02
-5.232275611117080671e-02,-3.554539742178311479e-02
-5.449087092612744931e-02,-3.805094917604281979e-02
-5.452502244844617540e-02,-3.881949042305740671e-02
-5.514420044862282377e-02,-3.680387967158361973e-02
-5.620516625893378498e-02,-3.256181078764645159e-02
-5.792690680120714947e-02,-2.822193288028049252e-02
-5.944810627489783422e-02,-2.413917008331072783e-02
-6.089130310363269349e-02,-2.089279601218413038e-02
-6.128341605211381354e-02,-1.833557768251695835e-02
-6.087194145734479978e-02,-1.420754365538512594e-02
-5.935009331574852415e-02,-8.134430576191311463e-03
-5.707303258578327182e-02,1.095024878726785127e-03
-5.612848545864252553e-02,1.508413295535421597e-02
-5.534681714838026595e-02,2.964262339798065179e-02
-5.098916653076253358e-02,4.061019012718002780e-02
-3.239639236730106064e-02,4.524663892018884054e-02
1.110235633690167048e-02,4.069796230111963342e-02
9.443663767070092918e-02,3.173210874519147989e-02
2.155682341184490536e-01,2.530084537089595520e-02
3.343714475174346390e-01,2.484556179071340659e-02
4.061146207623657634e-01,3.298465063847825368e-02
3.881475444703422761e-01,4.747586088890591582e-02
2.760670369227123944e-01,6.282815553602917602e-02
1.230892596002059469e-01,7.508493363517965147e-02
-7.522676138675726126e-03,8.152085460331046085e-02
-7.701296923722766863e-02,8.220372702343939353e-02
-8.704155358496344641e-02,8.029602490215488608e-02
-6.571171069879554183e-02,7.850343672518710070e-02
-4.450128323106407324e-02,7.747411624775900341e-02
-3.600288150603010717e-02,7.645534370320977713e-02
